1643371223.00
64.000000
-0.00
-0.00
-0.00
-0.00
-0.00
-0.00
-0.00
-0.00
-0.00
-0.00
0.00
0.01
0.01
-0.00
-0.03
-0.05
-0.05
0.00
0.13
0.36
0.66
1.01
1.37
1.72
2.06
2.40
2.79
3.25
3.82
4.47
5.14
5.81
6.44
7.05
7.70
8.47
9.40
10.60
11.98
13.44
14.87
16.20
17.49
18.90
20.63
22.84
25.74
29.16
32.82
36.43
39.84
43.13
46.62
50.75
55.87
62.35
69.88
77.95
86.00
93.70
101.16
108.87
117.56
127.79
140.12
154.08
168.90
183.72
198.03
211.87
225.91
241.50
257.37
275.79
297.37
322.23
349.19
375.35
396.40
407.70
405.93
390.21
362.98
328.08
289.87
251.57
214.69
179.43
145.48
112.77
81.64
52.79
26.13
1.06
-23.35
-47.78
-72.36
-96.69
-120.02
-141.81
-161.73
-180.27
-198.25
-216.55
-235.73
-255.85
-276.45
-296.87
-316.48
-334.78
-351.74
-367.60
-382.73
-397.42
-411.81
-425.85
-439.59
-453.13
-466.68
-480.59
-495.26
-511.05
-528.13
-546.45
-565.73
-585.79
-606.36
-627.14
-647.88
-668.31
-688.17
-707.15
-724.87
-738.96
-747.14
-746.98
-736.01
-711.92
-672.81
-617.45
-545.57
-458.01
-356.76
-245.20
-127.46
-8.10
108.36
217.86
317.08
403.68
476.27
534.39
578.17
608.36
626.19
633.13
630.79
620.75
604.49
583.37
558.64
531.28
502.16
472.03
441.55
411.24
381.52
352.67
324.89
298.32
272.98
248.91
226.12
204.65
184.51
165.72
148.24
132.04
117.06
103.25
90.52
78.83
68.15
58.44
49.66
41.77
34.72
28.44
22.88
17.98
13.70
10.02
6.90
4.31
2.23
0.61
-0.58
-1.31
-1.67
-1.72
-1.51
-1.08
-0.45
0.33
1.24
2.27
3.39
4.58
5.84
7.18
8.61
10.12
11.71
13.38
15.14
16.94
18.80
20.75
22.83
25.05
27.41
29.84
32.30
34.67
36.75
38.35
39.29
39.37
38.53
36.71
33.98
30.55
26.72
22.75
19.03
15.92
13.62
12.24
11.62
11.42
11.24
10.56
8.73
5.31
-0.06
-7.56
-17.06
-28.37
-41.08
-54.59
-67.30
-78.93
-89.09
-97.58
-104.37
-109.46
-113.08
-115.40
-116.38
-115.89
-113.95
-110.50
-105.67
-100.81
-95.60
-90.13
-84.38
-78.11
-70.90
-62.66
-53.49
-44.02
-35.21
-27.90
-22.75
-19.61
-17.49
-14.92
-10.58
-3.77
5.17
14.94
23.83
30.45
33.86
34.38
33.15
31.53
30.33
29.49
28.19
24.95
18.20
7.02
-8.24
-25.03
-38.58
-42.64
-31.50
-2.16
43.36
98.06
151.55
192.98
214.15
211.71
187.76
148.97
104.21
62.01
28.46
6.10
-5.77
-9.82
-9.15
-6.17
-2.31
1.50
4.11
4.49
2.13
-2.42
-7.52
-11.14
-11.94
-9.69
-5.54
-1.58
0.49
-0.03
-2.56
-5.63
-7.57
-7.39
-5.04
-1.54
1.57
2.98
2.00
-1.13
-5.43
-9.62
-12.57
-14.08
-15.21
-17.89
-23.53
-31.76
-39.94
-44.11
-40.89
-29.24
-11.32
8.80
27.20
41.51
51.13
56.28
56.69
51.82
41.88
29.29
18.54
13.87
16.40
22.22
24.62
17.97
1.50
-20.12
-39.33
-50.47
-52.96
-51.18
-51.22
-56.58
-66.25
-75.68
-80.19
-77.99
-71.15
-64.02
-60.21
-60.53
-63.10
-65.65
-67.36
-69.46
-73.89
-81.26
-89.77
-95.53
-94.71
-85.18
-68.29
-48.10
-29.11
-14.29
-4.27
2.19
6.69
9.92
12.48
14.59
16.98
21.20
29.18
42.51
61.95
87.47
113.83
136.94
153.38
160.99
159.52
150.77
137.76
123.54
109.89
96.41
81.57
63.20
40.23
14.11
-11.18
-30.41
-39.17
-35.78
-22.17
-2.65
17.23
32.73
41.34
43.04
39.20
31.35
20.31
6.16
-10.65
-28.72
-45.48
-58.02
-64.15
-63.93
-59.85
-56.16
-57.01
-64.43
-77.38
-92.38
-104.72
-110.19
-105.75
-89.39
-59.79
-16.69
38.13
99.61
159.22
207.57
238.01
249.53
247.13
239.56
235.24
238.65
248.89
260.44
266.40
261.49
243.54
213.98
177.57
141.42
114.09
103.89
115.96
151.70
208.15
277.91
350.09
412.46
454.33
469.46
457.43
420.47
365.20
301.08
237.77
182.05
136.49
100.40
71.81
48.57
22.68
-12.08
-57.48
-110.50
-166.15
-220.18
-270.01
-313.96
-351.95
-394.40
-449.90
-520.26
-599.70
-679.72
-753.50
-817.46
-869.74
-910.35
-952.66
-1006.97
-1073.95
-1144.15
-1205.26
-1248.84
-1272.93
-1277.95
-1192.91
-983.84
-669.65
-313.13
23.28
305.36
523.71
680.47
785.70
852.88
884.36
883.00
854.54
807.18
747.41
683.86
616.26
548.59
487.07
427.78
365.95
299.88
232.20
167.32
114.47
75.78
52.27
42.78
38.10
29.20
11.80
-11.92
-36.20
-55.25
-66.69
-69.31
-64.46
-58.24
-56.49
-62.15
-74.46
-90.84
-108.31
-124.77
-136.57
-139.52
-131.29
-111.71
-83.52
-51.91
-23.33
-2.98
6.52
6.75
1.48
-5.80
-13.38
-21.37
-30.13
-39.40
-47.63
-52.86
-53.67
-50.06
-43.41
-35.43
-27.58
-18.92
-7.92
7.10
26.89
50.67
76.10
100.04
119.74
132.65
139.83
143.32
145.42
147.60
149.84
150.82
148.77
142.77
133.29
122.40
112.46
105.30
101.64
101.12
102.83
105.45
106.81
103.82
93.25
73.11
44.92
14.16
-11.43
-25.43
-25.66
-16.20
-4.23
3.53
3.76
-2.44
-11.28
-19.29
-25.28
-30.38
-36.29
-43.34
-49.81
-53.02
-51.07
-44.08
-34.35
-25.22
-19.38
-17.52
-18.19
-18.44
-15.36
-7.34
4.99
19.42
33.42
44.89
52.75
56.41
56.18
53.24
50.12
49.69
54.45
64.87
77.84
87.01
84.73
66.46
32.89
-9.46
-52.06
-87.61
-112.72
-128.82
-140.07
-151.09
-164.05
-179.24
-195.67
-214.16
-236.36
-262.77
-291.77
-312.41
-316.42
-298.16
-262.38
-212.62
-157.08
-104.97
-62.53
-32.51
-12.49
3.07
19.46
39.24
63.27
91.04
119.30
146.88
172.23
195.96
220.74
249.29
282.77
321.88
366.31
416.00
470.50
527.49
569.87
586.46
574.87
540.88
491.96
431.11
358.21
284.36
206.08
125.45
51.04
-9.18
-52.41
-82.01
-104.28
-124.72
-149.43
-183.76
-227.67
-276.60
-325.95
-373.54
-419.82
-466.89
-500.59
-510.54
-495.66
-462.74
-421.59
-380.51
-343.93
-312.12
-281.70
-246.61
-203.85
-154.08
-100.48
-47.85
-0.75
38.30
69.40
93.20
111.03
119.15
112.41
88.04
48.35
1.29
-43.41
-79.04
-105.57
-127.50
-152.81
-185.26
-221.67
-253.10
-267.90
-258.18
-218.94
-155.92
-80.67
-8.39
49.48
86.53
102.48
104.44
102.91
107.45
122.54
147.91
176.58
201.64
217.00
208.35
169.19
103.67
24.19
-56.95
-124.16
-179.95
-225.21
-258.70
-278.36
-283.09
-273.26
-252.30
-225.93
-196.40
-170.16
-146.50
-123.21
-98.56
-70.86
-40.02
-7.83
22.92
54.70
82.03
106.85
131.48
157.31
185.37
215.63
247.15
278.89
316.11
353.06
392.03
436.17
488.54
550.87
621.74
695.36
727.41
751.80
753.73
730.90
687.18
630.58
569.82
510.86
455.77
403.87
359.53
314.94
269.81
225.26
182.92
143.69
107.09
71.83
36.87
6.34
-26.46
-63.26
-104.69
-149.92
-197.66
-247.40
-299.36
-353.69
-406.96
-464.13
-526.60
-593.71
-662.29
-727.86
-786.89
-837.12
-876.90
-880.61
-832.36
-730.93
-594.42
-449.16
-315.50
-203.54
-115.64
-50.42
-4.94
19.49
24.11
12.56
-7.26
-24.25
-28.99
-16.89
10.85
48.78
87.43
117.21
132.55
133.97
127.89
122.00
122.67
133.71
156.57
189.61
230.97
280.06
328.23
366.99
388.63
388.30
364.38
317.77
251.71
173.39
93.52
23.03
-29.48
-60.93
-73.85
-74.01
-67.88
-60.50
-54.60
-51.43
-52.40
-57.99
-68.43
-82.30
-96.42
-106.82
-109.51
-101.56
-82.88
-57.04
-29.52
-5.29
13.43
27.66
40.23
54.67
71.13
89.42
108.98
124.98
133.09
131.60
121.67
104.94
79.30
45.56
5.15
-40.45
-88.90
-135.12
-171.86
-186.35
-170.51
-128.60
-76.45
-32.17
-6.17
2.09
1.71
3.80
15.17
33.91
51.11
56.14
41.76
7.07
-42.51
-96.81
-144.20
-175.07
-185.40
-176.54
-153.03
-120.64
-84.81
-49.96
-18.94
7.02
27.81
43.21
52.26
53.03
43.26
21.94
-8.94
-43.23
-71.73
-85.90
-81.85
-61.96
-33.67
-7.10
11.42
18.84
15.89
5.69
-7.98
-22.07
-33.91
-41.45
-43.37
-39.14
-30.30
-19.15
-7.40
4.77
18.57
35.66
56.35
79.16
101.48
120.15
133.67
143.08
151.08
159.49
167.05
168.88
157.40
130.47
91.25
48.69
14.04
-4.57
-5.73
5.02
18.50
26.80
27.20
21.84
15.71
13.15
14.88
18.38
19.31
13.89
0.43
-20.09
-45.17
-71.71
-95.65
-113.66
-122.37
-119.27
-103.97
-78.94
-49.28
-21.23
0.09
12.65
17.35
17.50
16.85
17.78
20.11
21.23
17.01
3.63
-20.36
-53.60
-91.48
-127.90
-157.23
-176.78
-186.90
-189.88
-189.37
-185.63
-178.49
-167.64
-153.98
-139.74
-127.22
-116.65
-104.30
-85.37
-54.67
-10.69
42.78
97.31
142.99
172.48
183.83
180.59
169.39
157.58
148.79
143.77
141.24
139.27
136.54
132.89
128.69
124.34
120.38
116.79
113.59
111.35
111.06
113.62
118.69
123.63
123.71
114.12
92.14
59.48
22.20
-11.61
-35.16
-45.63
-44.89
-37.89
-29.69
-23.45
-19.73
-17.20
-14.45
-11.01
-7.44
-4.99
-5.00
-8.33
-15.42
-25.92
-39.00
-53.57
-68.43
-82.54
-94.88
-105.50
-114.57
-122.41
-129.91
-136.81
-142.86
-147.05
-147.20
-140.29
-123.68
-96.51
-60.93
-21.94
14.32
42.87
61.78
72.69
79.00
83.81
88.25
91.26
90.58
84.26
71.63
53.65
32.70
11.98
-5.44
-17.28
-22.96
-23.81
-22.62
-22.37
-24.78
-29.33
-33.72
-35.39
-33.30
-28.98
-26.30
-29.65
-41.75
-61.81
-84.88
-103.27
-109.39
-98.88
-72.83
-37.93
-3.99
19.94
28.93
23.45
7.93
-12.18
-32.95
-52.75
-71.00
-86.28
-95.61
-95.70
-85.20
-66.37
-45.61
-30.32
-24.87
-27.88
-32.60
-30.24
-14.40
15.92
56.15
98.88
137.51
168.59
192.07
209.70
223.20
233.19
239.28
240.59
236.49
227.17
213.81
198.28
182.55
168.02
154.94
142.45
129.24
114.36
98.09
81.75
67.16
55.67
47.56
42.16
38.41
35.64
33.63
32.49
32.07
31.92
31.29
29.74
27.25
24.33
21.40
18.13
13.24
5.00
-7.64
-23.72
-39.91
-51.25
-53.25
-44.27
-26.81
-6.78
8.85
14.98
10.24
-3.15
-21.10
-40.03
-58.38
-76.71
-96.51
-118.55
-141.73
-162.62
-176.44
-178.63
-166.79
-141.74
-107.40
-69.24
-32.25
0.55
28.26
50.85
67.91
77.95
79.11
70.74
54.62
34.79
15.83
0.84
-10.11
-19.81
-32.45
-51.21
-76.36
-104.66
-130.37
-147.49
-152.32
-144.95
-129.27
-111.31
-96.60
-88.32
-86.54
-88.78
-91.69
-92.46
-89.51
-82.54
-72.21
-59.97
-48.15
-38.97
-33.25
-29.72
-25.43
-17.08
-2.79
16.87
38.95
58.94
73.02
79.37
78.50
72.42
64.10
57.09
55.44
63.33
82.93
114.26
154.57
198.51
239.43
271.34
290.89
298.43
297.21
289.05
275.34
257.30
236.29
213.56
190.10
167.04
145.47
125.87
102.74
70.83
28.68
-20.22
-70.04
-115.69
-154.11
-184.59
-208.32
-235.54
-274.58
-326.59
-384.63
-439.17
-483.22
-513.78
-531.55
-539.80
-553.17
-583.94
-635.82
-703.52
-779.45
-858.45
-937.14
-1011.50
-1013.20
-901.66
-687.32
-427.55
-183.50
9.83
144.65
229.76
280.74
313.84
330.89
329.84
310.22
279.74
247.90
221.74
205.03
198.89
204.40
213.18
216.41
209.71
195.47
179.72
165.98
156.97
154.87
163.86
181.36
201.85
219.40
230.81
235.85
236.26
234.78
235.30
245.34
268.70
305.35
351.92
404.12
457.66
507.42
545.85
538.81
464.90
329.67
167.91
23.04
-76.02
-123.74
-126.82
-106.84
-81.04
-54.69
-25.68
9.15
50.24
85.60
106.11
109.52
97.90
77.14
57.74
49.96
58.77
82.67
116.01
151.49
187.72
226.97
274.31
322.12
362.10
386.54
390.64
391.19
383.08
361.63
328.50
281.58
229.09
181.61
145.73
121.83
103.88
82.81
55.60
23.67
-8.59
-37.39
-60.04
-75.65
-85.01
-93.08
-105.66
-123.69
-144.98
-164.85
-182.62
-199.06
-215.11
-231.67
-254.29
-287.02
-328.94
-374.39
-413.14
-441.71
-459.33
-465.94
-462.44
-457.68
-459.39
-472.26
-495.71
-522.16
-551.36
-584.01
-619.52
-613.10
-542.41
-415.96
-269.91
-171.42
-120.56
-107.23
-123.81
-151.72
-183.03
-223.71
-258.53
-276.30
-268.19
-226.59
-157.23
-69.53
13.82
90.97
155.17
201.25
226.12
232.96
233.58
232.72
233.53
239.05
252.79
272.63
297.12
323.89
351.25
378.41
398.60
403.69
387.49
348.62
287.69
211.20
128.67
51.05
-12.26
-58.88
-90.94
-111.85
-122.62
-122.55
-108.40
-77.86
-31.98
24.21
82.38
135.23
179.37
215.72
245.88
269.69
283.67
282.74
263.10
224.48
170.30
106.45
39.65
-23.92
-78.59
-119.17
-141.26
-142.09
-121.35
-81.63
-27.67
34.92
100.56
163.16
215.99
252.29
266.85
257.79
227.16
181.26
129.68
83.16
49.88
33.30
31.93
41.26
56.25
72.61
87.50
99.14
106.39
107.39
100.43
85.92
66.66
51.07
48.50
62.89
88.14
116.41
141.05
157.84
165.20
162.97
152.03
132.69
104.61
67.43
21.93
-30.34
-87.20
-145.75
-202.93
-255.75
-302.57
-343.05
-377.63
-406.76
-431.69
-454.66
-478.30
-504.26
-531.17
-553.90
-564.16
-553.10
-514.62
-448.79
-362.30
-265.81
-169.94
-81.63
-3.21
66.52
129.88
188.85
244.61
298.07
350.15
400.92
448.07
486.13
507.75
506.54
480.00
431.11
367.37
297.97
230.77
170.38
118.18
73.77
36.35
5.43
-19.63
-40.55
-61.05
-86.66
-122.68
-171.74
-231.57
-294.73
-350.71
-389.65
-405.32
-396.99
-368.74
-327.11
-279.34
-232.11
-191.92
-164.79
-155.07
-163.21
-185.16
-213.44
-239.92
-258.73
-267.64
-267.51
-259.95
-245.83
-224.02
-194.37
-159.72
-125.75
-98.47
-81.41
-74.78
-75.54
-79.76
-82.23
-80.69
-76.41
-72.45
-70.56
-69.53
-66.64
-58.19
-41.87
-13.61
27.78
79.36
135.72
192.60
248.38
302.63
356.95
412.67
475.88
549.82
631.28
710.67
776.40
818.96
832.01
816.63
744.68
610.38
435.61
258.82
110.30
0.57
-67.91
-111.51
-142.57
-170.14
-196.52
-223.91
-258.32
-304.36
-359.29
-413.63
-456.56
-478.57
-476.59
-450.45
-403.84
-344.49
-280.75
-215.44
-147.55
-77.22
-6.29
60.53
119.59
169.64
209.09
220.07
191.56
126.84
41.26
-47.16
-119.11
-174.13
-213.07
-236.63
-245.87
-240.79
-220.89
-188.30
-147.45
-103.76
-60.55
-18.06
23.13
61.04
95.13
125.17
150.08
168.05
177.49
180.28
180.72
181.95
184.84
190.12
198.45
209.72
222.87
236.20
251.75
272.17
297.71
325.65
352.61
376.18
394.57
406.46
386.00
320.47
214.71
88.67
-35.37
-142.84
-228.12
-292.18
-338.92
-372.48
-394.63
-405.50
-405.71
-397.68
-384.24
-366.15
-343.20
-314.22
-280.52
-239.18
-191.73
-143.34
-101.77
-73.55
-60.09
-59.93
-60.19
-59.56
-56.68
-50.43
-39.86
-24.12
-11.38
-4.81
-6.07
-15.63
-34.67
-60.95
-91.20
-122.01
-150.60
-174.91
-192.14
-200.86
-200.72
-193.73
-181.14
-164.43
-145.42
-126.36
-109.63
-96.38
-87.81
-84.76
-88.31
-98.11
-112.88
-130.70
-149.32
-166.51
-179.65
-186.91
-187.21
-180.79
-168.27
-150.82
-130.00
-107.57
-85.35
-64.56
-46.17
-30.70
-18.42
-9.05
-2.00
3.42
7.95
12.24
16.91
22.34
28.62
35.49
42.43
48.69
53.42
55.85
55.41
51.89
45.45
36.63
26.16
14.99
4.18
-5.10
-11.58
-13.91
-10.95
-1.93
13.18
33.57
57.55
82.89
107.28
128.88
146.79
161.10
172.71
182.84
192.54
202.38
212.53
222.90
233.54
244.84
257.48
272.31
290.17
311.71
337.15
365.87
395.96
424.08
446.01
457.76
456.95
443.77
420.92
392.53
362.56
333.58
306.46
281.16
257.65
236.56
218.97
205.53
195.74
187.84
179.41
168.44
154.27
137.95
121.80
108.47
99.83
96.25
96.36
97.27
95.15
86.10
67.22
37.72
-0.28
-41.97
-80.87
-110.79
-127.76
-131.30
-124.18
-111.14
-97.08
-85.48
-78.03
-74.95
-75.82
-80.15
-87.37
-96.56
-106.31
-114.89
-120.85
-123.64
-123.99
-123.69
-125.01
-129.82
-138.95
-151.76
-166.22
-179.24
-187.23
-186.78
-175.41
-152.19
-118.15
-76.32
-31.19
12.10
48.97
76.18
92.40
98.12
94.99
85.42
72.04
57.40
43.75
32.80
25.36
21.38
19.89
19.44
18.68
16.84
13.82
10.13
6.41
3.11
0.40
-1.67
-3.05
-3.53
-2.86
-0.89
2.27
6.24
10.47
14.39
17.62
19.97
21.49
22.25
22.17
20.96
18.16
13.36
6.34
-2.68
-13.18
-24.35
-35.41
-45.73
-54.84
-62.44
-68.10
-71.32
-71.52
-68.26
-61.49
-51.63
-39.51
-26.19
-12.70
0.02
11.15
19.95
25.79
28.29
27.67
24.71
20.62
16.59
13.31
10.86
8.94
7.24
5.79
5.03
5.46
7.33
10.36
13.84
17.03
19.37
20.79
21.41
21.50
21.23
20.70
19.93
18.90
17.51
15.53
12.58
8.33
2.72
-3.94
-10.89
-17.28
-22.45
-26.18
-28.66
-30.24
-31.17
-31.39
-30.67
-28.79
-25.78
-21.92
-17.64
-13.36
-9.40
-6.00
-3.31
-1.45
-0.50
-0.41
-1.02
-2.11
-3.54
-5.20
-7.11
-9.27
-11.51
-13.49
-14.70
-14.69
-13.28
-10.75
-7.80
-5.22
-3.53
-2.73
-2.34
-1.65
-0.23
1.93
4.29
6.15
6.94
6.47
4.96
2.81
0.43
-1.93
-4.13
-6.21
-8.25
-10.37
-12.62
-14.82
-16.65
-17.64
-17.53
-16.39
-14.78
-13.44
-12.97
-13.55
-14.75
-15.94
-16.53
-16.45
-16.00
-15.71
-15.93
-16.56
-17.22
-17.41
-16.94
-15.94
-14.80
-13.84
-13.08
-12.20
-10.75
-8.41
-5.21
-1.62
1.68
3.95
4.71
3.94
1.94
-0.62
-3.08
-4.81
-5.53
-5.24
-4.20
-2.75
-1.22
0.14
1.20
1.92
2.38
2.78
3.31
4.09
5.05
5.91
6.27
5.94
4.99
3.78
2.77
2.31
2.48
3.10
3.92
4.65
5.10
5.15
4.68
3.72
2.51
1.59
1.75
3.62
7.27
11.86
15.82
17.43
15.62
10.42
2.96
-5.12
-12.38
-18.14
-22.51
-25.91
-28.60
-30.37
-30.70
-29.14
-25.77
-21.25
-16.73
-13.45
-12.40
-14.12
-18.50
-24.99
-32.75
-40.89
-48.69
-55.60
-61.16
-65.02
-67.08
-67.60
-67.20
-66.68
-66.75
-67.71
-69.30
-70.96
-72.07
-72.26
-71.43
-69.54
-66.45
-61.76
-54.95
-45.69
-34.11
-20.83
-6.81
6.93
19.56
30.62
39.95
47.67
54.00
59.22
63.59
67.29
70.41
72.89
74.51
75.11
74.60
73.05
70.64
67.54
63.84
59.52
54.51
48.69
42.02
34.62
26.79
19.10
12.27
6.99
3.71
2.52
3.07
4.77
6.93
8.93
10.43
11.31
11.68
11.84
12.18
12.90
13.87
14.52
13.98
11.48
6.61
-0.36
-8.57
-16.78
-23.79
-28.72
-31.20
-31.34
-29.51
-26.16
-21.63
-16.07
-9.49
-1.83
6.98
16.73
26.97
36.92
45.65
52.30
56.32
57.57
56.28
52.86
47.64
40.74
32.24
22.37
11.75
1.28
-8.05
-15.50
-20.82
-24.22
-26.16
-27.30
-28.44
-30.64
-35.12
-42.79
-53.64
-66.21
-77.78
-85.25
-86.40
-80.81
-70.10
-57.08
-44.55
-34.26
-26.59
-21.00
-16.75
-13.43
-11.05
-9.67
-9.07
-8.76
-8.20
-7.08
-5.51
-3.92
-2.82
-2.42
-2.62
-2.94
-2.89
-2.09
-0.47
1.70
3.99
5.96
7.34
8.13
8.52
8.75
8.95
9.12
9.14
8.81
8.05
6.92
5.58
4.22
2.98
1.90
0.98
0.16
-0.61
-1.40
-2.28
-3.27
-4.35
-5.46
-6.44
-7.14
-7.47
-7.40
-7.05
-6.59
-6.19
-5.88
-5.58
-5.20
-4.68
-4.09
-3.59
-3.26
-3.10
-3.00
-2.80
-2.43
-1.92
-1.45
-1.17
-1.19
-1.48
-2.02
-2.86
-4.09
-5.76
-7.66
-9.26
-9.83
-8.70
-5.56
-0.68
5.16
10.89
15.55
18.54
19.76
19.50
18.21
16.28
13.98
11.51
9.12
7.04
5.50
4.64
4.43
4.73
5.40
6.26
7.09
7.67
7.69
6.99
5.65
3.96
2.45
1.47
1.12
1.15
1.19
0.97
0.48
-0.10
-0.62
-1.08
-1.59
-2.28
-3.11
-3.87
-4.34
-4.39
-4.10
-3.71
-3.41
-3.30
-3.37
-3.51
-3.68
-3.90
-4.18
-4.46
-4.64
-4.60
-4.34
-4.02
-3.86
-4.07
-4.60
-5.26
-5.76
-5.86
-5.57
-5.08
-4.63
-4.43
-4.52
-4.74
-4.88
-4.76
-4.34
-3.74
-3.14
-2.72
-2.60
-2.74
-3.08
-3.52
-3.97
-4.39
-4.74
-4.97
-4.97
-4.61
-3.83
-2.75
-1.69
-0.98
-0.89
-1.43
-2.32
-3.06
-3.25
-2.64
-1.37
0.19
1.62
2.60
3.07
3.22
3.27
3.36
3.44
3.28
2.68
1.65
0.36
-0.79
-1.47
-1.58
-1.25
-0.76
-0.39
-0.21
-0.16
-0.08
0.11
0.36
0.50
0.37
-0.05
-0.68
-1.40
-2.01
-2.43
-2.60
-2.55
-2.35
-2.10
-1.89
-1.83
-1.95
-2.25
-2.71
-3.24
-3.76
-4.20
-4.42
-4.31
-3.77
-2.79
-1.53
-0.24
0.85
1.58
2.00
2.27
2.56
2.93
3.26
3.35
3.05
2.38
1.56
0.88
0.55
0.57
0.69
0.70
0.44
-0.01
-0.44
-0.67
-0.61
-0.35
-0.06
0.11
0.07
-0.18
-0.60
-1.09
-1.51
-1.69
-1.54
-1.14
-0.72
-0.61
-1.02
-1.93
-3.09
-4.12
-4.69
-4.74
-4.32
-3.66
-2.93
-2.24
-1.69
-1.33
-1.20
-1.36
-1.82
-2.52
-3.33
-4.13
-4.74
-5.03
-4.91
-4.36
-3.43
-2.26
-1.07
-0.05
0.66
1.04
1.17
1.19
1.25
1.51
2.02
2.76
3.56
4.17
4.37
4.00
3.10
1.86
0.56
-0.54
-1.30
-1.72
-1.85
-1.82
-1.69
-1.49
-1.24
-1.01
-0.90
-1.00
-1.22
-1.38
-1.25
-0.67
0.29
1.38
2.30
2.89
3.24
3.55
4.01
4.60
5.07
5.11
4.65
3.86
3.09
2.68
2.71
2.98
3.16
2.99
2.40
1.49
0.48
-0.47
-1.26
-1.90
-2.43
-2.90
-3.30
-3.62
-3.80
-3.77
-3.53
-3.08
-2.49
-1.84
-1.20
-0.59
-0.10
0.19
0.15
-0.28
-1.05
-1.97
-2.77
-3.16
-3.03
-2.44
-1.61
-0.76
-0.10
0.35
0.68
0.99
1.31
1.53
1.52
1.21
0.68
0.13
-0.24
-0.37
-0.42
-0.63
-1.24
-2.22
-3.27
-3.98
-4.07
-3.52
-2.65
-1.86
-1.45
-1.45
-1.66
-1.88
-2.01
-2.13
-2.39
-2.88
-3.43
-3.79
-3.75
-3.29
-2.66
-2.21
-2.20
-2.69
-3.48
-4.28
-4.83
-5.00
-4.81
-4.30
-3.56
-2.66
-1.73
-0.94
-0.42
-0.27
-0.47
-0.87
-1.34
-1.73
-1.95
-1.95
-1.64
-0.99
-0.04
0.99
1.79
2.08
1.77
1.01
0.15
-0.49
-0.78
-0.78
-0.68
-0.70
-0.94
-1.36
-1.85
-2.28
-2.53
-2.50
-2.15
-1.55
-0.85
-0.26
0.07
0.10
-0.11
-0.41
-0.74
-1.09
-1.45
-1.81
-2.06
-2.10
-1.85
-1.31
-0.59
0.19
0.89
1.43
1.74
1.81
1.62
1.21
0.71
0.23
-0.09
-0.24
-0.26
-0.25
-0.26
-0.29
-0.26
-0.10
0.18
0.45
0.56
0.36
-0.15
-0.83
-1.42
-1.69
-1.52
-1.00
-0.38
0.04
0.09
-0.24
-0.77
-1.29
-1.70
-2.04
-2.39
-2.79
-3.10
-3.09
-2.61
-1.71
-0.72
-0.01
0.21
-0.02
-0.44
-0.77
-0.89
-0.89
-0.87
-0.86
-0.78
-0.52
-0.03
0.56
1.04
1.27
1.18
0.90
0.51
0.06
-0.42
-0.87
-1.18
-1.18
-0.79
-0.13
0.53
0.82
0.54
-0.29
-1.44
-2.58
-3.48
-4.08
-4.48
-4.78
-5.02
-5.11
-4.89
-4.24
-3.15
-1.82
-0.54
0.35
0.71
0.57
0.21
0.01
0.25
0.98
2.00
2.93
3.43
3.36
2.82
2.06
1.32
0.72
0.30
0.05
0.01
0.22
0.69
1.35
2.01
2.39
2.26
1.49
0.20
-1.35
-2.75
-3.63
-3.79
-3.28
-2.42
-1.63
-1.29
-1.55
-2.25
-3.04
-3.57
-3.60
-3.12
-2.24
-1.14
0.02
1.08
1.96
2.56
2.75
2.49
1.80
0.75
-0.48
-1.68
-2.62
-3.04
-2.81
-1.92
-0.57
0.88
2.08
2.82
3.03
2.84
2.40
1.81
1.10
0.28
-0.54
-1.19
-1.49
-1.35
-0.90
-0.32
0.15
0.35
0.19
-0.35
-1.21
-2.27
-3.36
-4.22
-4.67
-4.65
-4.24
-3.69
-3.29
-3.12
-3.08
-2.94
-2.44
-1.55
-0.42
0.62
1.29
1.47
1.21
0.77
0.37
0.22
0.30
0.53
0.77
0.95
1.02
0.95
0.73
0.37
-0.12
-0.67
-1.19
-1.60
-1.90
-2.11
-2.33
-2.68
-3.18
-3.76
-4.32
-4.69
-4.80
-4.67
-4.39
-4.08
-3.83
-3.68
-3.57
-3.48
-3.39
-3.32
-3.32
-3.37
-3.36
-3.12
-2.57
-1.72
-0.74
0.12
0.68
0.91
0.90
0.85
0.91
1.14
1.51
1.91
2.23
2.42
2.50
2.51
2.49
2.47
2.44
2.41
2.43
2.52
2.64
2.67
2.43
1.78
0.74
-0.49
-1.63
-2.32
-2.43
-2.02
-1.39
-0.93
-0.87
-1.26
-1.89
-2.50
-2.94
-3.24
-3.55
-4.02
-4.57
-4.95
-4.77
-3.83
-2.23
-0.37
1.25
2.24
2.51
2.23
1.72
1.23
0.87
0.61
0.36
0.11
-0.07
-0.08
0.16
0.60
1.12
1.55
1.79
1.85
1.87
2.05
2.51
3.17
3.79
4.03
3.65
2.68
1.35
0.02
-0.97
-1.50
-1.67
-1.77
-2.11
-2.88
-4.09
-5.59
-7.09
-8.26
-8.70
-8.15
-6.52
-4.03
-1.17
1.46
3.39
4.39
4.58
4.29
3.86
3.54
3.36
3.29
3.25
3.23
3.30
3.48
3.68
3.76
3.50
2.81
1.73
0.43
-0.85
-1.91
-2.67
-3.17
-3.48
-3.64
-3.69
-3.64
-3.54
-3.49
-3.59
-3.94
-4.60
-5.58
-6.80
-8.02
-8.93
-9.15
-8.42
-6.73
-4.42
-2.00
-0.04
1.16
1.60
1.57
1.39
1.32
1.40
1.56
1.76
1.98
2.25
2.52
2.67
2.64
2.40
2.06
1.77
1.68
1.78
1.98
2.18
2.30
2.36
2.35
2.24
1.92
1.38
0.63
-0.19
-0.98
-1.69
-2.42
-3.29
-4.34
-5.41
-6.28
-6.74
-6.69
-6.17
-5.26
-4.02
-2.53
-0.87
0.83
2.38
3.64
4.62
5.44
6.19
6.93
7.57
7.93
7.85
7.34
6.44
5.30
4.06
2.80
1.65
0.74
0.08
-0.29
-0.43
-0.44
-0.31
0.00
0.52
1.26
2.07
2.72
2.98
2.67
1.80
0.61
-0.51
-1.20
-1.20
-0.62
0.22
0.82
0.77
-0.09
-1.49
-2.94
-3.97
-4.17
-3.51
-2.27
-0.79
0.51
1.38
1.82
1.85
1.60
1.22
0.79
0.44
0.40
0.90
2.04
3.68
5.32
6.36
6.35
5.24
3.42
1.55
0.18
-0.41
-0.34
0.04
0.38
0.53
0.46
0.26
0.04
-0.21
-0.54
-0.99
-1.53
-2.03
-2.34
-2.39
-2.26
-2.11
-2.08
-2.13
-2.00
-1.37
0.10
2.53
5.70
9.17
12.43
15.16
17.22
18.78
20.17
21.78
23.77
25.90
27.73
28.90
29.42
29.70
30.40
32.15
35.45
40.12
45.27
49.69
52.59
54.00
54.67
55.72
58.19
62.94
69.78
77.43
84.04
88.24
89.75
89.19
87.67
86.38
86.76
89.50
93.94
97.94
98.36
91.70
74.88
46.26
4.05
-47.03
-96.66
-133.62
-151.94
-152.90
-142.10
-125.38
-106.46
-86.78
-66.07
-44.44
-23.16
-4.04
11.56
23.84
34.22
44.50
55.98
69.38
83.66
97.49
109.16
117.18
121.44
123.00
123.38
123.96
125.85
129.36
134.15
139.57
144.56
148.85
152.67
156.31
159.77
162.61
163.64
160.74
156.00
149.66
142.04
133.58
124.77
116.02
107.63
99.75
92.47
85.90
79.55
73.27
67.07
61.03
55.24
49.77
44.69
40.12
36.23
32.69
29.33
26.09
22.93
19.86
16.92
14.17
11.73
9.73
8.01
6.47
5.07
3.78
2.58
1.46
0.43
-0.48
-1.21
-1.84
-2.42
-2.95
-3.44
-3.92
-4.36
-4.79
-5.21
-5.58
-5.94
-6.31
-6.68
-7.03
-7.39
-7.72
-8.04
-8.34
-8.63
-8.89
-9.15
-9.37
-9.55
-9.68
-9.74
-9.74
-9.70
-9.64
-9.59
-9.59
-9.68
-9.87
-10.18
-10.59
-11.08
-11.61
-12.15
-12.66
-13.12
-13.51
-13.81
-14.06
-14.25
-14.48
-14.79
-15.24
-15.84
-16.57
-17.36
-18.13
-18.78
-19.29
-19.67
-20.00
-20.35
-20.77
-21.28
-21.80
-22.28
-22.63
-22.87
-23.09
-23.44
-24.05
-25.01
-26.24
-27.55
-28.71
-29.51
-29.96
-30.25
-30.75
-31.85
-33.80
-36.57
-39.87
-43.21
-46.33
-49.28
-52.62
-57.27
-64.16
-73.83
-86.10
-100.13
-114.67
-128.59
-141.45
-153.68
-166.56
-181.59
-199.97
-221.93
-246.70
-272.71
-298.24
-322.15
-344.40
-366.05
-388.86
-414.69
-444.73
-478.80
-514.69
-547.79
-571.49
-578.50
-563.05
-523.17
-462.02
-387.33
-309.10
-236.30
-174.31
-124.03
-83.06
-48.23
-17.63
8.46
28.47
41.09
46.59
46.96
44.95
42.90
41.77
41.19
40.37
38.93
37.07
35.21
33.22
30.15
24.67
16.25
6.05
-3.04
-7.45
-4.68
5.52
20.84
37.26
50.63
57.87
57.62
50.17
36.94
20.13
2.35
-13.44
-24.44
-28.40
-24.43
-13.36
2.47
19.68
34.81
45.33
50.13
49.65
45.57
39.89
34.29
29.69
26.31
23.93
22.33
21.47
21.42
22.19
23.63
25.39
27.19
28.95
30.77
32.72
34.64
36.01
36.12
34.53
31.19
26.67
21.83
17.49
14.15
11.83
10.13
8.36
5.80
1.91
-3.39
-9.56
-15.39
-19.28
-19.65
-15.61
-7.31
4.05
16.52
28.05
37.08
42.89
45.52
45.61
44.07
41.87
39.84
38.51
37.99
38.05
38.18
38.00
37.41
36.70
36.26
36.37
36.93
37.53
37.63
36.84
35.05
32.39
29.12
25.43
21.49
17.41
13.36
9.50
5.83
2.11
-2.02
-6.80
-12.13
-17.32
-21.28
-22.87
-21.21
-16.06
-7.89
2.27
13.02
22.98
31.07
36.65
39.64
40.46
39.85
38.62
37.43
36.58
36.12
35.85
35.60
35.26
34.90
34.59
34.42
34.35
34.24
33.90
33.07
31.62
29.48
26.60
22.98
18.64
13.76
8.66
3.76
-0.53
-4.07
-7.08
-10.15
-13.93
-18.80
-24.50
-30.02
-33.83
-34.40
-30.82
-23.19
-12.69
-1.10
9.76
18.64
25.05
29.22
31.74
33.12
33.65
33.45
32.59
31.27
29.81
28.54
27.73
27.46
27.51
27.62
27.52
27.11
26.49
25.90
25.50
25.23
24.77
23.64
21.48
18.24
14.26
10.06
6.08
2.48
-0.89
-4.31
-8.02
-12.13
-16.57
-21.20
-25.63
-29.27
-31.17
-30.31
-25.92
-18.01
-7.53
3.75
13.95
21.75
26.72
29.35
30.56
31.15
31.46
31.41
30.81
29.71
28.56
28.00
28.44
29.87
31.73
33.21
33.65
32.82
30.93
28.44
25.66
22.72
19.48
15.80
11.74
7.56
3.63
0.23
-2.60
-5.08
-7.54
-10.39
-13.95
-18.34
-23.36
-28.44
-32.57
-34.56
-33.40
-28.64
-20.67
-10.67
-0.24
9.11
16.26
20.85
23.10
23.57
22.85
21.38
19.44
17.31
15.34
13.89
13.30
13.71
14.97
16.76
18.63
20.13
20.95
20.86
19.67
17.36
14.04
10.01
5.78
1.86
-1.43
-4.10
-6.50
-9.09
-12.28
-16.24
-20.84
-25.70
-30.23
-33.71
-35.21
-33.92
-29.27
-21.34
-11.04
0.13
10.51
18.84
24.52
27.71
28.94
28.83
27.91
26.58
25.21
24.06
23.22
22.58
21.88
20.97
19.90
18.96
18.40
18.28
18.31
17.99
16.88
14.80
11.87
8.34
4.46
0.45
-3.45
-7.03
-10.08
-12.61
-14.89
-17.45
-20.81
-25.17
-30.26
-35.15
-38.48
-38.83
-35.21
-27.52
-16.65
-4.35
7.32
16.66
22.83
26.03
27.18
27.38
27.38
27.43
27.44
27.29
27.15
27.32
28.11
29.48
31.04
32.18
32.43
31.77
30.50
29.11
27.91
26.74
25.05
22.20
17.87
12.24
6.06
0.28
-4.28
-7.36
-9.26
-10.78
-12.89
-16.38
-21.59
-28.23
-35.28
-41.13
-43.94
-42.21
-35.34
-24.09
-10.44
3.03
14.17
21.89
26.38
28.75
30.23
31.47
32.41
32.53
31.50
29.58
27.60
26.49
26.82
28.41
30.49
32.14
32.75
32.25
31.06
29.75
28.60
27.58
26.26
24.19
21.10
16.94
12.00
6.75
1.69
-2.71
-6.16
-8.67
-10.49
-12.08
-13.99
-16.67
-20.47
-25.44
-31.30
-37.40
-42.60
-45.45
-44.58
-39.20
-29.55
-17.01
-3.71
8.19
17.29
23.27
26.76
28.78
30.11
30.99
31.24
30.57
29.06
27.22
25.78
25.31
25.85
26.99
28.07
28.54
28.25
27.43
26.45
25.60
24.88
24.05
22.82
21.00
18.53
15.55
12.21
8.68
5.13
1.70
-1.49
-4.40
-7.03
-9.59
-12.23
-15.12
-18.40
-22.16
-26.46
-31.18
-35.84
-39.52
-40.97
-39.04
-33.19
-23.88
-12.55
-1.12
8.64
15.73
20.08
22.24
22.99
22.86
22.01
20.50
18.38
16.03
13.96
12.75
12.69
13.73
15.41
17.14
18.32
18.60
17.95
16.57
14.84
13.10
11.45
9.74
7.61
4.70
0.86
-3.71
-8.42
-12.60
-15.76
-17.92
-19.57
-21.47
-24.40
-28.71
-34.34
-40.77
-47.22
-52.76
-56.41
-57.27
-54.77
-48.90
-40.37
-30.52
-20.93
-12.78
-6.49
-1.71
2.33
6.25
10.06
13.26
15.16
15.38
14.28
12.77
12.00
12.71
14.94
17.89
20.51
21.87
21.65
20.22
18.29
16.60
15.51
15.05
15.04
15.32
15.84
16.66
17.81
19.16
20.50
21.52
21.94
21.39
19.44
15.60
9.59
1.76
-6.81
-14.34
-18.98
-19.45
-15.62
-8.49
0.22
8.83
16.22
21.93
26.00
28.59
29.70
29.32
27.49
24.58
21.23
18.14
15.88
14.68
14.41
14.72
15.07
14.94
13.98
12.11
9.58
6.89
4.46
2.49
0.80
-1.03
-3.45
-6.69
-10.63
-14.85
-18.75
-21.86
-23.94
-25.14
-25.86
-26.73
-28.39
-31.31
-35.57
-40.70
-45.68
-49.09
-49.48
-45.88
-38.17
-27.17
-14.52
-2.16
8.28
15.83
20.36
22.37
22.71
22.20
21.49
20.93
20.68
20.76
21.16
21.85
22.77
23.79
24.70
25.17
24.86
23.56
21.32
18.51
15.64
13.08
11.00
9.20
7.24
4.78
1.63
-2.00
-5.69
-8.92
-11.40
-13.14
-14.48
-15.96
-18.15
-21.39
-25.80
-31.14
-36.92
-42.37
-46.52
-48.35
-47.00
-42.00
-33.60
-22.80
-11.12
-0.17
8.83
15.30
19.36
21.62
22.84
23.64
24.33
24.98
25.52
25.84
25.95
25.98
26.08
26.41
26.94
27.49
27.83
27.71
27.02
25.86
24.36
22.68
20.82
18.65
16.01
12.75
8.91
4.62
0.21
-4.03
-7.85
-11.17
-14.02
-16.57
-19.10
-21.86
-25.14
-29.08
-33.77
-38.97
-44.15
-48.43
-50.67
-49.85
-45.32
-37.20
-26.33
-14.21
-2.48
7.48
14.84
19.47
21.69
22.09
21.25
19.69
17.78
15.85
14.18
12.97
12.41
12.60
13.45
14.68
15.91
16.77
17.08
16.91
16.53
16.24
16.12
16.00
15.40
13.81
10.97
7.03
2.50
-1.96
-5.68
-8.40
-10.30
-11.97
-14.29
-18.10
-23.81
-31.21
-39.29
-46.45
-50.97
-51.45
-47.32
-38.96
-27.69
-15.27
-3.52
6.15
12.99
16.94
18.45
18.18
16.84
14.92
12.79
10.75
9.09
8.11
8.03
8.87
10.39
12.15
13.74
14.87
15.45
15.40
14.68
13.07
10.36
6.49
1.65
-3.63
-8.63
-12.74
-15.73
-17.76
-19.42
-21.50
-24.69
-29.31
-35.11
-41.15
-45.97
-47.99
-45.98
-39.53
-29.25
-16.56
-3.34
8.66
18.24
24.90
28.78
30.46
30.62
29.83
28.48
26.69
24.54
22.15
19.81
17.93
16.87
16.77
17.40
18.25
18.77
18.59
17.71
16.28
14.49
12.35
9.60
5.91
1.19
-4.30
-9.89
-14.77
-18.38
-20.71
-22.33
-24.27
-27.52
-32.59
-39.20
-46.18
-51.85
-54.50
-52.90
-46.68
-36.43
-23.45
-9.50
3.69
14.70
22.75
27.69
30.03
30.58
30.22
29.63
29.10
28.65
28.21
27.81
27.60
27.77
28.32
28.96
29.32
29.03
28.04
26.64
25.22
24.00
22.76
20.92
17.78
12.98
6.75
-0.12
-6.58
-11.85
-15.68
-18.46
-20.99
-24.12
-28.43
-34.12
-40.90
-47.95
-54.01
-57.49
-56.85
-51.15
-40.53
-26.30
-10.74
3.73
15.23
22.95
27.18
28.92
29.38
29.43
29.54
29.75
30.00
30.28
30.69
31.32
32.14
32.87
33.12
32.55
31.06
28.85
26.34
24.07
22.31
21.09
20.07
18.75
16.61
13.32
8.89
3.68
-1.69
-6.62
-10.74
-14.08
-17.05
-20.17
-23.91
-28.57
-34.18
-40.56
-47.24
-53.37
-57.64
-58.57
-54.98
-46.49
-33.88
-18.93
-3.83
9.47
19.87
27.15
31.69
34.20
35.30
35.44
34.95
34.11
33.20
32.48
32.10
32.15
32.64
33.43
34.32
34.92
34.88
33.94
32.09
29.55
26.66
23.77
21.05
18.44
15.68
12.41
8.36
3.47
-2.05
-7.74
-13.04
-17.52
-20.94
-23.37
-25.18
-26.93
-29.23
-32.66
-37.45
-43.35
-49.32
-53.73
-54.69
-50.74
-41.48
-27.82
-11.80
4.05
17.50
27.23
32.97
35.21
34.83
32.73
29.69
26.35
23.36
21.22
20.33
20.74
22.13
23.89
25.31
25.86
25.33
23.89
21.92
19.83
17.79
15.69
13.17
9.79
5.33
-0.11
-6.05
-11.80
-16.73
-20.50
-23.17
-25.23
-27.38
-30.35
-34.58
-39.92
-45.56
-50.05
-51.67
-49.01
-41.50
-29.86
-15.92
-2.05
9.60
17.80
22.36
23.99
23.70
22.38
20.45
18.07
15.33
12.53
10.17
8.86
8.97
10.47
12.85
15.31
17.03
17.51
16.62
14.55
11.63
8.12
4.16
-0.10
-4.44
-8.53
-12.06
-14.91
-17.36
-19.97
-23.43
-28.22
-34.28
-40.84
-46.51
-49.59
-48.59
-42.81
-32.55
-19.19
-4.75
8.64
19.31
26.41
30.00
30.82
29.91
28.22
26.38
24.65
23.09
21.67
20.47
19.60
19.20
19.20
19.41
19.54
19.33
18.68
17.55
15.88
13.48
10.11
5.69
0.49
-4.84
-9.53
-13.02
-15.37
-17.14
-19.25
-22.53
-27.37
-33.66
-40.78
-47.76
-53.30
-55.96
-54.40
-47.82
-36.42
-21.57
-5.60
8.98
20.18
27.25
30.61
31.51
31.20
30.56
29.90
29.09
28.05
26.76
25.42
24.24
23.38
22.87
22.64
22.59
22.54
22.35
21.77
20.56
18.49
15.42
11.45
6.80
1.87
-2.96
-7.30
-10.93
-13.80
-16.14
-18.39
-21.17
-25.02
-30.14
-36.14
-41.91
-45.88
-46.44
-42.47
-33.94
-21.92
-8.36
4.58
15.20
22.70
27.14
29.27
29.97
29.91
29.44
28.57
27.27
25.68
24.15
23.17
23.09
23.90
25.12
26.08
26.20
25.32
23.77
22.05
20.53
19.15
17.41
14.67
10.56
5.25
-0.67
-6.33
-11.09
-14.73
-17.46
-19.91
-22.72
-26.40
-31.17
-36.81
-42.67
-47.69
-50.58
-50.11
-45.51
-36.79
-24.94
-11.72
0.83
11.03
18.04
21.98
23.67
24.01
23.75
23.19
22.33
21.23
20.06
19.15
18.77
19.05
19.75
20.45
20.69
20.18
19.01
17.50
16.10
15.13
14.58
14.03
12.92
10.67
7.13
2.59
-2.29
-6.76
-10.38
-13.04
-15.02
-16.77
-18.78
-21.49
-25.19
-29.92
-35.35
-40.64
-44.51
-45.57
-42.76
-35.83
-25.55
-13.53
-1.71
8.23
15.30
19.29
20.56
19.77
17.53
14.36
10.69
6.95
3.65
1.34
0.38
0.82
2.37
4.41
6.35
7.74
8.45
8.52
8.07
7.09
5.44
2.99
-0.23
-3.94
-7.76
-11.28
-14.30
-16.94
-19.56
-22.61
-26.42
-30.92
-35.63
-39.56
-41.50
-40.32
-35.45
-27.10
-16.35
-4.79
5.87
14.31
19.90
22.69
23.21
22.20
20.29
17.94
15.45
13.06
11.04
9.62
8.95
8.93
9.32
9.76
9.96
9.77
9.18
8.20
6.81
4.83
2.09
-1.48
-5.72
-10.28
-14.75
-18.83
-22.41
-25.66
-28.88
-32.34
-36.10
-39.80
-42.62
-43.42
-41.11
-35.16
-25.91
-14.59
-3.00
7.09
14.55
19.10
21.30
22.02
22.12
22.01
21.76
21.26
20.41
19.39
18.51
18.06
18.12
18.47
18.68
18.42
17.57
16.32
15.02
13.90
12.79
11.21
8.64
4.74
-0.25
-5.69
-10.71
-14.70
-17.56
-19.77
-22.12
-25.42
-30.11
-35.98
-42.11
-47.04
-49.19
-47.36
-41.11
-31.10
-18.90
-6.53
4.27
12.46
17.96
21.38
23.56
25.11
26.24
26.85
26.84
26.32
25.63
25.16
25.14
25.40
25.59
25.24
24.13
22.32
20.16
18.08
16.44
15.33
14.57
13.72
12.27
9.86
6.40
2.11
-2.51
-6.90
-10.69
-13.77
-16.33
-18.68
-21.15
-24.03
-27.46
-31.41
-35.59
-39.40
-41.90
-42.02
-38.90
-32.27
-22.72
-11.64
-0.74
8.39
14.89
18.77
20.71
21.72
22.62
23.76
25.01
25.96
26.20
25.59
24.40
23.11
22.23
21.99
22.25
22.52
22.32
21.35
19.76
17.91
16.21
14.80
13.45
11.68
9.10
5.64
1.64
-2.34
-5.78
-8.48
-10.60
-12.52
-14.62
-17.08
-19.89
-23.07
-26.65
-30.76
-35.41
-40.11
-43.75
-44.77
-41.80
-34.32
-23.11
-10.16
2.09
11.64
17.68
20.54
21.40
21.38
21.16
20.82
20.14
18.97
17.51
16.26
15.73
16.16
17.39
18.89
20.01
20.30
19.63
18.28
16.71
15.38
14.47
13.82
12.98
11.47
9.00
5.63
1.77
-2.03
-5.32
-7.91
-9.88
-11.56
-13.29
-15.35
-17.93
-21.17
-25.16
-29.72
-34.30
-37.87
-39.10
-36.88
-30.82
-21.54
-10.54
0.26
9.20
15.28
18.37
18.95
17.77
15.53
12.69
9.60
6.60
4.05
2.33
1.64
1.95
2.94
4.19
5.30
6.05
6.43
6.46
6.13
5.36
4.03
2.01
-0.60
-3.63
-6.82
-9.88
-12.61
-14.89
-16.83
-18.75
-21.12
-24.32
-28.35
-32.54
-35.66
-36.35
-33.58
-27.21
-18.10
-7.80
1.97
9.93
15.48
18.71
20.07
20.03
18.88
16.74
13.77
10.32
6.96
4.35
2.98
2.94
3.95
5.41
6.66
7.30
7.18
6.36
4.98
3.07
0.61
-2.41
-5.90
-9.57
-13.06
-16.15
-18.86
-21.47
-24.32
-27.60
-31.02
-33.84
-35.00
-33.55
-29.03
-21.72
-12.58
-2.93
5.87
12.86
17.65
20.39
21.56
21.71
21.27
20.47
19.34
17.97
16.54
15.37
14.72
14.64
14.93
15.21
15.15
14.60
13.67
12.50
11.07
9.21
6.63
3.24
-0.68
-4.61
-7.96
-10.44
-12.28
-14.04
-16.40
-19.82
-24.29
-29.38
-34.22
-37.82
-39.20
-37.66
-32.95
-25.44
-16.05
-6.14
2.87
9.87
14.42
16.66
17.27
17.11
16.87
16.90
17.20
17.55
17.78
17.92
18.06
18.29
18.54
18.59
18.23
17.49
16.58
15.82
15.28
14.68
13.53
11.29
7.78
3.29
-1.60
-6.19
-9.99
-12.85
-14.92
-16.58
-18.29
-20.58
-23.73
-27.73
-32.11
-35.89
-37.89
-37.06
-32.94
-25.86
-16.98
-7.78
0.37
6.69
11.16
14.27
16.71
18.89
20.85
22.36
23.13
23.05
22.23
20.99
19.75
18.87
18.59
18.98
19.79
20.63
21.04
20.69
19.55
17.86
15.87
13.79
11.67
9.47
7.24
5.10
3.19
1.54
-0.04
-1.83
-4.03
-6.61
-9.36
-11.98
-14.33
-16.57
-18.98
-21.91
-25.56
-29.81
-34.11
-37.54
-38.88
-37.05
-31.57
-22.87
-12.39
-2.08
6.32
11.87
14.64
15.54
15.68
15.90
16.48
17.22
17.81
17.99
17.77
17.38
17.17
17.38
18.10
19.09
19.96
20.24
19.64
18.16
16.14
14.08
12.29
10.76
9.24
7.34
4.93
2.19
-0.51
-2.81
-4.62
-6.15
-7.83
-10.00
-12.73
-15.82
-18.93
-21.82
-24.46
-27.01
-29.52
-31.69
-32.81
-32.00
-28.58
-22.50
-14.49
-5.84
2.10
8.42
12.84
15.68
17.37
18.14
17.90
16.49
14.00
11.01
8.46
7.20
7.67
9.54
11.90
13.73
14.34
13.64
12.10
10.43
9.15
8.36
7.69
6.64
4.80
2.14
-1.09
-4.47
-7.53
-10.01
-11.88
-13.28
-14.50
-15.91
-17.87
-20.60
-24.05
-27.76
-30.89
-32.37
-31.24
-27.09
-20.27
-11.89
-3.42
3.80
9.00
12.18
13.91
14.92
15.71
16.31
16.53
16.10
15.08
13.83
12.84
12.49
12.85
13.61
14.36
14.75
14.65
14.11
13.32
12.39
11.33
10.05
8.47
6.51
4.23
1.75
-0.73
-2.95
-4.77
-6.13
-7.19
-8.25
-9.70
-11.89
-15.02
-19.02
-23.49
-27.77
-30.88
-31.82
-29.88
-24.93
-17.63
-9.31
-1.49
4.61
8.43
10.17
10.52
10.29
10.06
10.11
10.42
10.89
11.43
12.02
12.72
13.61
14.72
15.94
17.07
17.79
17.88
17.27
16.14
14.76
13.33
11.89
10.30
8.33
5.92
3.20
0.48
-1.93
-3.90
-5.50
-6.99
-8.68
-10.75
-13.24
-16.18
-19.50
-23.12
-26.71
-29.66
-31.04
-29.95
-25.88
-19.08
-10.67
-2.29
4.61
9.18
11.59
12.68
13.46
14.48
15.70
16.63
16.72
15.91
14.60
13.52
13.23
13.83
14.93
15.91
16.21
15.70
14.59
13.32
12.22
11.39
10.54
9.22
7.12
4.08
0.39
-3.41
-6.70
-8.97
-10.08
-10.35
-10.38
-10.84
-12.29
-14.96
-18.75
-23.32
-28.09
-32.34
-35.28
-36.11
-34.24
-29.59
-22.64
-14.41
-6.19
0.85
5.95
8.96
10.19
10.22
9.58
8.68
7.68
6.61
5.50
4.45
3.57
2.96
2.65
2.60
2.79
3.21
3.80
4.50
5.11
5.41
5.13
4.11
2.37
0.09
-2.36
-4.72
-6.76
-8.46
-10.00
-11.70
-13.79
-16.42
-19.55
-22.91
-26.14
-28.68
-29.91
-29.15
-26.00
-20.43
-13.10
-5.16
2.04
7.37
10.44
11.51
11.33
10.71
10.14
9.71
9.27
8.71
8.04
7.49
7.30
7.60
8.36
9.35
10.29
10.95
11.26
11.18
10.75
9.86
8.34
5.99
2.69
-1.37
-5.80
-9.97
-13.34
-15.56
-16.64
-16.94
-17.05
-17.68
-19.35
-22.29
-26.18
-30.08
-32.67
-32.61
-29.05
-22.07
-12.71
-2.70
6.22
12.88
16.92
18.68
18.88
18.14
16.88
15.36
13.83
12.59
11.90
11.85
12.27
12.81
13.10
12.98
12.54
12.10
11.97
12.27
12.87
13.34
13.19
12.02
9.73
6.58
3.06
-0.35
-3.42
-6.18
-8.88
-11.69
-14.74
-18.06
-21.68
-25.60
-29.67
-33.31
-35.48
-34.97
-30.85
-23.09
-12.70
-1.40
8.89
16.86
22.00
24.56
25.27
24.94
24.13
23.13
22.05
20.92
19.79
18.82
18.17
17.92
18.02
18.28
18.44
18.28
17.72
16.82
15.72
14.51
13.21
11.67
9.64
6.91
3.32
-1.03
-5.77
-10.36
-14.31
-17.39
-19.76
-21.97
-24.62
-28.14
-32.41
-36.71
-39.86
-40.54
-37.81
-31.51
-22.42
-12.00
-1.95
6.36
12.30
15.95
17.84
18.58
18.49
17.68
16.18
14.11
11.81
9.66
8.08
7.27
7.29
7.99
9.11
10.32
11.25
11.54
10.92
9.27
6.66
3.39
-0.10
-3.35
-6.04
-8.11
-9.75
-11.32
-13.14
-15.45
-18.36
-21.87
-25.81
-29.80
-33.15
-34.83
-33.86
-29.61
-22.22
-12.67
-2.45
6.79
13.89
18.40
20.54
20.91
20.15
18.74
16.97
15.06
13.28
11.99
11.50
11.91
12.98
14.24
15.16
15.44
15.10
14.40
13.65
12.94
11.97
10.20
7.12
2.52
-3.28
-9.52
-15.25
-19.65
-22.31
-23.42
-23.72
-24.23
-25.92
-29.18
-33.64
-38.16
-41.13
-41.07
-37.21
-29.74
-19.79
-8.95
1.24
9.66
15.76
19.47
21.08
21.04
20.03
18.75
17.76
17.39
17.65
18.31
19.17
20.07
20.86
21.39
21.32
20.41
18.66
16.47
14.51
13.37
13.10
13.12
12.47
10.32
6.44
1.33
-4.04
-8.67
-12.02
-14.15
-15.57
-17.01
-19.08
-22.15
-26.21
-30.97
-35.75
-39.50
-41.07
-39.43
-34.12
-25.56
-14.98
-4.00
5.85
13.58
18.95
22.33
24.33
25.50
26.15
26.36
26.15
25.58
24.76
23.96
23.40
23.33
23.80
24.77
25.96
26.98
27.43
27.10
25.95
24.16
21.92
19.41
16.71
13.87
10.86
7.65
4.18
0.44
-3.54
-7.62
-11.61
-15.35
-18.79
-22.08
-25.60
-29.77
-34.75
-40.17
-45.05
-47.93
-47.47
-42.97
-34.71
-23.98
-12.63
-2.38
5.69
11.35
15.03
17.39
18.96
19.96
20.41
20.32
19.86
19.39
19.29
19.82
20.87
22.06
22.86
22.88
21.98
20.43
18.71
17.26
16.28
15.58
14.71
13.14
10.45
6.54
1.66
-3.56
-8.36
-12.04
-14.22
-15.14
-15.52
-16.44
-18.82
-23.09
-28.91
-35.21
-40.48
-43.26
-42.57
-38.16
-30.63
-21.15
-11.18
-2.09
5.24
10.59
14.18
16.45
17.78
18.36
18.21
17.45
16.38
15.47
15.16
15.72
17.06
18.87
20.70
22.16
23.02
23.16
22.53
21.18
19.22
16.86
14.34
11.78
9.15
6.33
3.23
-0.01
-3.04
-5.48
-7.06
-7.89
-8.45
-9.43
-11.49
-15.00
-19.83
-25.33
-30.35
-33.50
-33.51
-29.68
-22.18
-12.07
-0.93
9.62
18.36
24.75
28.76
30.66
30.76
29.42
27.07
24.24
21.51
19.35
18.02
17.43
17.32
17.30
17.05
16.46
15.56
14.51
13.45
12.44
11.44
10.26
8.62
6.27
3.11
-0.76
-4.99
-9.09
-12.66
-15.50
-17.68
-19.57
-21.72
-24.64
-28.61
-33.50
-38.67
-43.10
-45.54
-44.89
-40.55
-32.73
-22.41
-11.15
-0.61
7.89
13.70
16.87
17.99
17.74
16.63
14.88
12.54
9.77
6.95
4.69
3.59
3.94
5.52
7.72
9.80
11.18
11.61
11.14
9.91
8.05
5.66
2.81
-0.32
-3.48
-6.47
-9.23
-11.87
-14.63
-17.83
-21.57
-25.68
-29.49
-31.90
-31.68
-27.88
-20.30
-9.76
2.08
13.32
22.36
28.37
31.44
32.17
31.42
29.91
28.13
26.32
24.67
23.28
22.19
21.40
20.86
20.50
20.21
19.85
19.23
18.13
16.38
13.91
10.79
7.15
3.07
-1.40
-6.19
-11.04
-15.59
-19.51
-22.72
-25.62
-28.94
-33.39
-39.09
-45.23
-50.17
-52.03
-49.43
-42.16
-31.21
-18.43
-5.83
4.97
13.12
18.48
21.38
22.42
22.21
21.26
19.89
18.31
16.61
14.90
13.31
12.08
11.41
11.36
11.79
12.33
12.58
12.15
10.84
8.66
5.89
2.86
-0.07
-2.75
-5.24
-7.73
-10.50
-13.72
-17.50
-21.86
-26.66
-31.51
-35.59
-37.73
-36.75
-31.92
-23.44
-12.54
-1.07
9.12
16.86
21.88
24.67
25.96
26.37
26.25
25.68
24.75
23.70
22.85
22.51
22.78
23.49
24.19
24.41
23.78
22.28
20.22
18.05
16.15
14.58
13.03
10.94
7.80
3.48
-1.63
-6.79
-11.22
-14.57
-17.02
-19.20
-21.81
-25.38
-29.93
-34.94
-39.50
-42.59
-43.22
-40.75
-35.06
-26.54
-16.18
-5.29
4.86
13.28
19.45
23.39
25.45
26.06
25.79
25.22
24.80
24.88
25.47
26.24
26.72
26.45
25.25
23.37
21.30
19.54
18.42
17.93
17.82
17.68
17.15
15.87
13.71
10.60
6.72
2.50
-1.52
-4.78
-6.97
-8.23
-9.07
-10.30
-12.75
-16.95
-22.75
-29.24
-34.87
-37.85
-36.86
-31.54
-22.69
-12.03
-1.53
7.25
13.57
17.50
19.62
20.56
20.76
20.43
19.67
18.66
17.69
17.11
17.20
18.02
19.33
20.64
21.39
21.15
19.87
17.90
15.79
14.09
13.03
12.41
11.73
10.42
8.13
4.86
0.96
-3.03
-6.66
-9.65
-12.11
-14.42
-16.99
-20.10
-23.76
-27.77
-31.84
-35.72
-39.06
-41.36
-41.85
-39.68
-34.28
-25.71
-14.98
-3.67
6.47
14.19
19.09
21.55
22.31
22.00
20.98
19.27
16.93
14.21
11.68
10.04
9.73
10.72
12.44
14.05
14.85
14.54
13.35
11.72
10.05
8.41
6.68
4.66
2.28
-0.21
-2.48
-4.26
-5.52
-6.35
-7.00
-7.63
-8.33
-9.25
-10.48
-12.14
-14.24
-16.65
-18.93
-20.52
-20.75
-19.01
-14.98
-8.76
-0.95
7.38
14.97
20.78
24.24
25.41
24.89
23.41
21.57
19.65
17.76
16.01
14.60
13.76
13.64
14.15
14.86
15.24
14.91
13.78
12.18
10.56
9.27
8.37
7.64
6.61
4.96
2.54
-0.52
-3.84
-7.06
-9.88
-12.21
-14.16
-16.03
-18.14
-20.74
-23.94
-27.59
-31.24
-34.11
-35.32
-34.03
-29.81
-22.82
-13.87
-4.33
4.25
10.45
13.42
13.07
10.11
5.83
1.65
-1.31
-2.43
-1.56
1.20
5.82
12.29
20.48
29.86
39.30
47.27
52.43
54.08
52.44
48.40
43.00
36.95
30.44
23.42
15.96
8.47
1.70
-3.66
-7.38
-9.92
-12.43
-16.42
-23.15
-33.09
-45.44
-58.19
-68.58
-74.02
-73.07
-66.14
-55.42
-43.99
-34.66
-28.89
-26.49
-26.21
-26.70
-27.33
-28.19
-29.66
-31.62
-33.27
-33.38
-31.13
-26.62
-20.91
-15.54
-11.70
-9.78
-9.34
-9.71
-10.34
-11.14
-12.38
-14.31
-16.97
-20.18
-23.68
-27.38
-31.56
-36.71
-43.24
-51.16
-59.72
-67.50
-72.65
-73.50
-69.05
-59.32
-45.15
-27.95
-9.11
10.23
29.18
46.91
62.46
74.80
83.05
86.86
86.61
83.30
78.19
72.28
66.15
59.91
53.50
46.85
40.05
33.22
26.38
19.45
12.36
5.27
-1.38
-7.05
-11.34
-14.31
-16.46
-18.62
-21.51
-25.48
-30.31
-35.26
-39.23
-41.03
-39.75
-34.95
-27.03
-17.12
-6.87
2.04
8.47
12.05
13.29
13.10
12.40
11.76
11.37
11.09
10.73
10.20
9.49
8.72
7.98
7.40
7.11
7.14
7.43
7.75
7.74
7.04
5.49
3.20
0.53
-2.07
-4.27
-5.97
-7.43
-9.12
-11.54
-15.05
-19.78
-25.45
-31.27
-36.05
-38.42
-37.21
-32.00
-23.34
-12.60
-1.59
8.01
15.19
19.65
21.76
22.04
21.04
19.17
16.76
14.16
11.75
9.87
8.66
8.06
7.84
7.67
7.32
6.69
5.89
5.17
4.67
4.30
3.71
2.37
-0.15
-3.94
-8.65
-13.66
-18.21
-21.86
-24.53
-26.62
-28.77
-31.64
-35.72
-41.02
-46.93
-52.26
-55.40
-54.80
-49.53
-39.68
-26.48
-12.08
1.24
11.66
18.39
21.76
22.88
23.04
23.16
23.60
24.20
24.67
24.86
24.88
24.96
25.22
25.51
25.43
24.73
23.41
21.87
20.62
19.95
19.73
19.37
18.09
15.28
10.76
4.88
-1.59
-7.72
-12.77
-16.44
-19.00
-21.20
-23.91
-27.82
-33.26
-40.07
-47.64
-55.04
-61.14
-64.90
-65.51
-62.71
-56.91
-49.19
-41.03
-33.91
-28.93
-26.59
-26.81
-29.12
-32.99
-37.89
-43.36
-48.92
-54.07
-58.27
-61.16
-62.58
-62.72
-62.11
-61.45
-61.29
-61.72
-62.08
-60.96
-56.25
-45.69
-27.56
-1.23
32.49
71.68
113.85
156.71
198.58
238.20
274.29
305.02
327.95
340.58
341.12
329.03
305.09
270.89
228.42
179.88
128.00
76.28
28.83
-10.49
-39.14
-56.73
-65.00
-67.01
-65.90
-63.89
-61.83
-59.64
-57.02
-53.85
-50.42
-47.20
-44.42
-41.98
-39.47
-36.57
-33.21
-29.88
-27.29
-26.18
-26.95
-29.43
-33.04
-36.98
-40.54
-43.26
-45.10
-46.30
-47.35
-48.73
-50.83
-53.81
-57.51
-61.54
-65.09
-67.14
-66.50
-62.13
-53.41
-40.52
-24.54
-7.26
9.23
23.23
33.85
41.21
46.17
49.82
53.05
56.21
59.21
61.77
63.75
65.24
66.53
67.79
68.89
69.46
69.03
67.37
64.59
61.11
57.32
53.47
49.41
44.68
38.75
31.14
21.67
10.50
-1.86
-14.57
-26.60
-36.94
-44.81
-49.99
-52.86
-54.37
-55.77
-58.20
-62.36
-68.15
-74.70
-80.57
-84.13
-84.09
-79.88
-71.79
-60.91
-48.75
-36.86
-26.39
-17.95
-11.58
-6.96
-3.65
-1.45
-0.53
-1.23
-3.84
-8.06
-12.92
-16.88
-18.34
-16.16
-10.08
-0.76
10.57
22.57
34.19
44.82
54.22
62.35
69.17
74.51
78.08
79.60
78.80
75.61
70.18
62.85
54.08
44.28
33.75
22.76
11.59
0.48
-10.48
-21.40
-32.67
-44.66
-57.42
-70.26
-81.68
-89.55
-91.85
-87.41
-76.53
-61.00
-43.65
-27.37
-14.32
-5.41
-0.37
1.78
2.19
1.74
0.89
-0.15
-1.21
-2.05
-2.37
-2.02
-0.97
0.61
2.47
4.34
6.08
7.61
8.89
9.86
10.32
9.94
8.44
5.68
1.84
-2.61
-6.99
-10.72
-13.54
-15.59
-17.49
-19.99
-23.70
-28.77
-34.59
-39.94
-43.26
-43.21
-39.12
-31.33
-20.92
-9.49
1.45
10.79
17.95
22.80
25.53
26.48
26.08
24.81
23.13
21.43
20.06
19.22
19.00
19.34
19.97
20.49
20.45
19.58
17.84
15.55
13.13
10.80
8.54
6.00
2.83
-1.11
-5.65
-10.39
-14.79
-18.44
-21.20
-23.19
-24.84
-26.71
-29.37
-33.16
-37.86
-42.58
-45.88
-46.23
-42.59
-34.96
-24.36
-12.53
-1.25
8.17
15.22
19.96
22.81
24.24
24.61
24.20
23.31
22.23
21.33
20.89
21.11
21.95
23.18
24.40
25.16
25.13
24.27
22.78
21.02
19.30
17.65
15.88
13.66
10.74
7.17
3.21
-0.75
-4.38
-7.53
-10.23
-12.59
-14.68
-16.61
-18.50
-20.57
-23.15
-26.53
-30.67
-34.94
-38.21
-39.09
-36.58
-30.44
-21.45
-11.10
-1.09
7.30
13.48
17.58
20.10
21.58
22.38
22.71
22.69
22.54
22.46
22.59
22.92
23.26
23.49
23.57
23.62
23.78
24.10
24.46
24.54
23.99
22.59
20.33
17.43
14.23
10.96
7.80
4.78
1.86
-1.04
-4.02
-7.10
-10.20
-13.12
-15.62
-17.63
-19.33
-21.19
-23.81
-27.71
-32.94
-38.96
-44.56
-48.19
-48.45
-44.61
-36.92
-26.55
-15.22
-4.57
4.27
10.94
15.63
18.78
20.73
21.53
21.19
19.83
17.83
15.76
14.15
13.33
13.29
13.81
14.57
15.29
15.83
16.17
16.37
16.46
16.43
16.11
15.24
13.52
10.79
7.16
2.96
-1.29
-5.06
-8.03
-10.12
-11.58
-12.80
-14.18
-16.08
-18.72
-22.06
-25.78
-29.18
-31.37
-31.44
-28.87
-23.65
-16.42
-8.21
-0.10
7.05
12.80
17.06
19.85
21.25
21.23
19.84
17.37
14.44
11.73
9.89
9.24
9.64
10.63
11.58
11.96
11.53
10.42
8.96
7.55
6.35
5.19
3.67
1.46
-1.49
-4.79
-7.83
-10.08
-11.41
-12.21
-13.20
-15.14
-18.41
-22.90
-27.98
-32.65
-35.78
-36.40
-33.93
-28.41
-20.55
-11.53
-2.72
4.75
10.24
13.72
15.53
16.18
16.16
15.80
15.24
14.56
13.80
12.99
12.28
11.81
11.70
11.95
12.37
12.68
12.67
12.24
11.51
10.61
9.55
8.12
5.98
2.88
-1.07
-5.44
-9.60
-13.00
-15.48
-17.28
-18.92
-20.91
-23.65
-27.25
-31.54
-36.10
-40.17
-42.73
-42.73
-39.46
-32.87
-23.74
-13.47
-3.58
4.68
10.76
14.70
16.99
18.19
18.79
19.03
19.06
18.93
18.67
18.29
17.81
17.22
16.52
15.66
14.56
13.21
11.67
10.14
8.86
7.95
7.24
6.27
4.54
1.71
-2.06
-6.18
-9.87
-12.49
-13.87
-14.35
-14.57
-15.14
-16.46
-18.66
-21.72
-25.45
-29.46
-33.02
-35.04
-34.43
-30.57
-23.67
-14.84
-5.71
2.22
8.09
11.80
13.82
14.73
14.97
14.78
14.28
13.68
13.25
13.23
13.67
14.40
15.14
15.62
15.69
15.36
14.78
14.11
13.47
12.88
12.19
11.06
9.12
6.10
2.01
-2.80
-7.69
-11.96
-15.11
-17.00
-18.00
-18.77
-20.05
-22.51
-26.41
-31.56
-37.20
-42.09
-44.74
-43.91
-39.02
-30.50
-19.65
-8.25
2.07
10.25
15.97
19.45
21.17
21.47
20.58
18.78
16.43
14.07
12.16
10.95
10.33
10.00
9.63
9.09
8.54
8.21
8.23
8.38
8.26
7.30
5.20
1.99
-1.91
-5.85
-9.24
-11.76
-13.48
-14.72
-16.02
-17.93
-20.87
-24.89
-29.56
-33.91
-36.65
-36.55
-32.88
-25.77
-16.15
-5.56
4.46
12.74
18.71
22.41
24.13
24.32
23.26
21.22
18.42
15.14
11.76
8.75
6.52
5.41
5.54
6.75
8.54
10.25
11.12
10.67
8.78
5.76
2.13
-1.63
-5.29
-8.84
-12.38
-15.96
-19.52
-22.90
-26.15
-29.56
-33.46
-37.86
-42.11
-44.90
-44.64
-40.17
-31.41
-19.52
-6.52
5.42
14.78
21.02
24.51
26.07
26.44
26.06
25.05
23.44
21.42
19.36
17.73
16.82
16.66
16.93
17.19
17.05
16.41
15.37
14.15
12.89
11.54
9.93
7.83
5.18
2.09
-1.26
-4.73
-8.27
-11.95
-15.84
-20.03
-24.73
-30.14
-36.32
-42.98
-49.17
-53.38
-53.97
-49.81
-40.90
-28.46
-14.56
-1.32
9.79
18.24
24.26
28.40
31.07
32.44
32.57
31.57
29.90
28.13
26.88
26.46
26.88
27.77
28.65
29.10
28.94
28.25
27.20
26.03
24.82
23.51
21.84
19.47
16.09
11.51
5.87
-0.47
-6.80
-12.36
-16.58
-19.29
-20.94
-22.46
-24.93
-29.13
-35.08
-41.84
-47.78
-50.96
-49.83
-43.77
-33.34
-20.07
-6.00
6.92
17.44
25.10
30.16
33.27
35.01
35.68
35.42
34.31
32.63
30.85
29.55
29.13
29.62
30.63
31.61
32.03
31.64
30.51
28.94
27.23
25.54
23.79
21.69
18.91
15.19
10.48
5.08
-0.48
-5.58
-9.73
-12.79
-15.03
-16.97
-19.25
-22.44
-26.93
-32.78
-39.69
-46.84
-52.88
-56.12
-55.03
-48.85
-37.97
-23.97
-9.11
4.46
15.29
22.91
27.54
29.74
30.04
28.88
26.69
24.10
21.85
20.58
20.56
21.56
23.03
24.30
24.98
24.98
24.53
23.92
23.35
22.78
21.92
20.42
17.93
14.32
9.74
4.68
-0.21
-4.30
-7.24
-9.16
-10.61
-12.40
-15.21
-19.45
-25.00
-31.26
-37.18
-41.44
-42.75
-40.10
-33.25
-22.91
-10.61
1.65
12.04
19.48
23.78
25.52
25.60
24.79
23.44
21.64
19.44
17.02
14.82
13.36
13.00
13.78
15.41
17.36
19.15
20.43
21.03
20.83
19.67
17.30
13.57
8.50
2.49
-3.83
-9.76
-14.78
-18.70
-21.60
-23.90
-26.22
-29.21
-33.27
-38.25
-43.22
-46.63
-46.71
-42.24
-33.13
-20.65
-6.98
5.53
15.25
21.69
25.32
27.00
27.48
27.11
25.90
23.89
21.36
18.85
17.05
16.46
17.17
18.86
20.87
22.43
23.00
22.36
20.72
18.50
16.12
13.77
11.31
8.44
4.88
0.71
-3.72
-7.80
-11.03
-13.24
-14.76
-16.24
-18.42
-21.89
-26.86
-33.08
-39.71
-45.52
-49.06
-49.00
-44.64
-36.19
-24.79
-12.27
-0.60
8.77
15.21
18.97
20.86
21.74
22.20
22.42
22.36
21.96
21.31
20.64
20.25
20.32
20.78
21.37
21.69
21.47
20.58
19.07
17.17
15.12
13.11
11.10
8.95
6.40
3.25
-0.48
-4.52
-8.43
-11.77
-14.27
-16.01
-17.38
-19.01
-21.56
-25.50
-30.76
-36.62
-41.75
-44.54
-43.68
-38.65
-30.03
-19.18
-7.82
2.61
11.29
17.98
22.85
26.06
27.75
27.97
26.92
25.04
22.93
21.16
20.13
19.89
20.23
20.75
21.04
20.78
19.84
18.32
16.48
14.63
12.98
11.56
10.21
8.67
6.73
4.21
1.14
-2.25
-5.74
-9.05
-12.03
-14.67
-17.15
-19.77
-22.92
-26.93
-31.79
-36.98
-41.48
-43.98
-43.30
-38.91
-31.16
-21.20
-10.60
-0.81
7.22
13.13
17.03
19.13
19.71
19.02
17.44
15.49
13.78
12.78
12.64
13.14
13.78
14.15
14.05
13.59
13.05
12.67
12.45
12.17
11.49
10.09
7.82
4.68
0.83
-3.43
-7.67
-11.46
-14.52
-16.77
-18.62
-20.71
-23.70
-27.89
-32.90
-37.64
-40.60
-40.39
-36.21
-28.17
-17.35
-5.43
5.73
14.68
20.65
23.58
23.97
22.58
20.09
17.07
13.94
11.02
8.62
6.99
6.19
6.17
6.70
7.46
8.18
8.61
8.56
7.89
6.52
4.47
1.87
-1.00
-3.94
-6.80
-9.57
-12.33
-15.14
-18.01
-21.02
-24.28
-27.93
-31.99
-36.00
-39.03
-39.81
-37.14
-30.55
-20.58
-8.73
3.03
12.95
20.01
24.07
25.66
25.50
24.28
22.48
20.45
18.53
16.97
15.95
15.47
15.31
15.18
14.80
14.07
13.04
11.83
10.46
8.87
6.92
4.49
1.55
-1.79
-5.35
-8.90
-12.24
-15.23
-17.82
-20.16
-22.56
-25.44
-29.12
-33.62
-38.42
-42.48
-44.45
-43.08
-37.73
-28.72
-17.22
-4.97
6.28
15.21
21.28
24.62
25.87
25.78
25.02
24.10
23.31
22.83
22.69
22.85
23.14
23.32
23.10
22.31
20.96
19.22
17.38
15.77
14.55
13.64
12.72
11.32
9.02
5.70
1.57
-2.85
-6.93
-10.23
-12.71
-14.66
-16.63
-19.12
-22.39
-26.43
-30.86
-35.01
-38.04
-38.95
-36.87
-31.38
-22.73
-11.99
-0.82
9.08
16.46
20.93
22.89
23.24
22.80
22.12
21.43
20.71
20.03
19.56
19.49
19.91
20.79
21.80
22.57
22.76
22.21
21.00
19.45
17.83
16.32
14.77
12.80
9.95
6.02
1.21
-3.79
-8.18
-11.37
-13.28
-14.34
-15.21
-16.54
-18.76
-22.09
-26.42
-31.40
-36.32
-40.14
-41.66
-39.88
-34.42
-25.82
-15.44
-4.95
4.15
11.03
15.60
18.26
19.56
19.98
19.72
18.90
17.63
16.14
14.70
13.55
12.80
12.28
11.78
11.10
10.26
9.49
9.06
9.14
9.46
9.43
8.39
5.93
2.20
-2.14
-6.19
-9.26
-11.10
-11.98
-12.56
-13.58
-15.60
-18.91
-23.30
-28.10
-32.20
-34.27
-33.14
-28.25
-19.98
-9.60
1.18
10.67
17.80
22.21
24.14
24.11
22.65
20.19
17.07
13.71
10.57
8.09
6.49
5.84
5.93
6.44
7.08
7.62
7.89
7.83
7.37
6.43
4.92
2.73
-0.18
-3.65
-7.37
-10.98
-14.22
-17.02
-19.68
-22.61
-26.22
-30.53
-35.04
-38.75
-40.42
-39.01
-34.09
-25.95
-15.69
-4.77
5.29
13.32
18.72
21.48
22.05
21.07
19.18
16.95
14.80
13.01
11.72
10.93
10.52
10.37
10.35
10.35
10.33
10.25
9.96
9.32
8.15
6.34
3.96
1.22
-1.61
-4.34
-6.94
-9.54
-12.28
-15.20
-18.33
-21.72
-25.51
-29.71
-34.11
-38.03
-40.40
-40.07
-36.32
-29.20
-19.65
-9.13
0.83
9.17
15.37
19.42
21.56
22.14
21.54
20.21
18.69
17.52
17.01
17.22
17.87
18.55
18.87
18.64
17.88
16.78
15.59
14.44
13.33
12.13
10.53
8.33
5.45
2.08
-1.38
-4.55
-7.17
-9.27
-11.10
-13.04
-15.39
-18.41
-22.21
-26.80
-32.00
-37.30
-41.74
-44.06
-43.12
-38.28
-29.84
-19.06
-7.69
2.56
10.59
16.04
19.23
20.73
21.13
20.81
20.00
18.95
17.93
17.22
17.00
17.24
17.71
18.12
18.17
17.72
16.75
15.47
14.15
13.07
12.24
11.46
10.24
8.01
4.43
-0.37
-5.79
-10.94
-14.99
-17.53
-18.79
-19.43
-20.36
-22.39
-25.95
-30.97
-36.80
-42.26
-45.89
-46.34
-42.76
-35.16
-24.49
-12.36
-0.56
9.46
16.92
21.73
24.16
24.69
23.71
21.62
18.85
15.94
13.46
11.84
11.26
11.56
12.30
12.99
13.28
13.00
12.19
10.96
9.48
7.82
5.99
3.90
1.43
-1.55
-5.01
-8.80
-12.54
-15.87
-18.63
-20.97
-23.31
-26.13
-29.63
-33.49
-36.76
-38.19
-36.67
-31.59
-23.24
-12.69
-1.50
8.69
16.72
22.07
24.89
25.75
25.32
24.06
22.19
19.81
17.06
14.20
11.73
10.13
9.72
10.49
12.05
13.73
14.79
14.64
13.05
10.18
6.48
2.47
-1.37
-4.85
-7.97
-10.88
-13.80
-16.89
-20.34
-24.46
-29.50
-35.46
-41.75
-47.05
-49.62
-47.92
-41.28
-30.28
-16.69
-2.80
9.39
18.67
24.85
28.39
29.96
30.06
28.98
26.90
24.12
21.08
18.33
16.29
15.13
14.74
14.78
14.96
15.08
15.20
15.33
15.37
14.96
13.59
10.91
6.91
2.01
-3.15
-7.93
-12.00
-15.38
-18.40
-21.60
-25.49
-30.46
-36.57
-43.38
-49.80
-54.26
-55.05
-51.02
-42.03
-29.23
-14.73
-0.84
10.57
18.57
23.22
25.19
25.43
24.79
23.93
23.25
22.99
23.20
23.79
24.53
25.15
25.48
25.49
25.26
24.93
24.64
24.29
23.73
22.63
20.68
17.64
13.48
8.35
2.62
-3.21
-8.67
-13.36
-17.13
-20.11
-22.76
-25.69
-29.50
-34.47
-40.27
-45.91
-49.80
-50.26
-46.04
-36.95
-24.02
-9.28
4.84
16.27
23.97
28.07
29.58
29.76
29.58
29.45
29.32
29.02
28.55
28.15
28.19
28.92
30.23
31.77
33.02
33.60
33.33
32.32
30.82
29.10
27.30
25.38
23.08
20.14
16.42
11.99
7.20
2.50
-1.73
-5.31
-8.25
-10.77
-13.13
-15.68
-18.80
-22.79
-27.82
-33.64
-39.43
-43.80
-45.24
-42.50
-35.24
-24.16
-10.89
2.56
14.33
23.27
28.95
31.62
31.91
30.51
28.15
25.53
23.20
21.51
20.60
20.36
20.53
20.84
20.98
20.70
19.81
18.29
16.30
14.21
12.39
11.07
10.11
9.01
7.14
4.00
-0.45
-5.81
-11.32
-16.23
-20.11
-22.97
-25.32
-27.88
-31.38
-36.18
-42.07
-48.27
-53.52
-56.35
-55.53
-50.40
-41.11
-28.57
-14.31
-0.07
12.59
22.64
29.59
33.52
34.77
33.87
31.37
27.90
24.03
20.35
17.34
15.42
14.80
15.49
17.18
19.33
21.24
22.24
21.89
20.05
16.97
13.10
8.92
4.75
0.74
-3.08
-6.67
-10.01
-13.12
-16.14
-19.37
-23.20
-27.82
-32.98
-37.79
-40.89
-40.80
-36.49
-27.90
-16.10
-2.97
9.38
19.24
25.81
29.15
29.93
29.03
27.16
24.82
22.28
19.81
17.54
15.67
14.29
13.43
13.05
13.02
13.24
13.57
13.88
13.98
13.66
12.66
10.77
7.89
4.08
-0.36
-5.05
-9.58
-13.64
-17.14
-20.16
-22.87
-25.55
-28.59
-32.27
-36.61
-41.14
-44.80
-46.22
-44.12
-37.95
-28.10
-15.95
-3.31
8.09
17.04
23.11
26.43
27.52
27.02
25.62
23.91
22.41
21.41
20.99
20.99
21.11
21.07
20.63
19.72
18.46
17.07
15.81
14.90
14.46
14.28
13.97
12.93
10.67
7.04
2.38
-2.64
-7.23
-10.82
-13.37
-15.25
-17.14
-19.74
-23.52
-28.53
-34.31
-39.86
-43.73
-44.50
-41.14
-33.52
-22.58
-10.09
1.91
11.79
18.75
22.84
24.63
24.88
24.22
23.02
21.58
20.17
19.11
18.65
18.90
19.70
20.69
21.42
21.53
20.91
19.72
18.30
17.03
16.09
15.43
14.72
13.53
11.50
8.51
4.68
0.39
-3.91
-7.83
-11.20
-14.05
-16.57
-19.01
-21.61
-24.62
-28.30
-32.75
-37.69
-42.39
-45.64
-46.08
-42.80
-35.65
-25.51
-13.87
-2.42
7.55
15.28
20.53
23.39
24.02
22.74
20.02
16.61
13.39
11.09
10.10
10.29
11.18
12.16
12.82
13.05
12.99
12.85
12.76
12.58
12.05
10.86
8.77
5.79
2.08
-2.04
-6.13
-9.81
-12.73
-14.84
-16.33
-17.73
-19.66
-22.65
-26.80
-31.65
-36.17
-38.96
-38.72
-34.70
-26.95
-16.49
-5.03
5.61
13.98
19.38
21.90
22.15
20.92
18.87
16.44
13.90
11.50
9.51
8.18
7.72
8.08
9.02
10.22
11.32
12.09
12.42
12.17
11.27
9.58
7.08
3.86
0.17
-3.70
-7.51
-11.15
-14.69
-18.29
-22.08
-26.14
-30.42
-34.73
-38.57
-41.21
-41.64
-38.97
-32.79
-23.48
-12.24
-0.76
9.32
16.92
21.72
24.11
24.65
23.95
22.34
20.01
17.19
14.26
11.73
10.05
9.43
9.66
10.32
10.94
11.23
11.16
10.94
10.69
10.30
9.41
7.59
4.59
0.62
-3.76
-7.84
-11.09
-13.51
-15.50
-17.77
-20.96
-25.43
-31.09
-37.39
-43.28
-47.46
-48.55
-45.56
-38.24
-27.32
-14.42
-1.57
9.39
17.42
22.37
24.85
25.71
25.68
25.15
24.28
23.18
22.07
21.18
20.71
20.64
20.79
20.87
20.68
20.15
19.40
18.55
17.71
16.77
15.48
13.50
10.54
6.55
1.78
-3.16
-7.57
-10.96
-13.24
-14.86
-16.63
-19.43
-23.76
-29.56
-36.12
-42.23
-46.42
-47.43
-44.49
-37.61
-27.68
-16.13
-4.62
5.45
13.23
18.53
21.62
22.93
22.93
22.00
20.50
18.87
17.55
16.83
16.84
17.46
18.37
19.17
19.49
19.12
18.08
16.58
14.95
13.48
12.29
11.23
9.95
8.04
5.17
1.34
-3.17
-7.81
-12.00
-15.39
-18.04
-20.37
-23.04
-26.72
-31.70
-37.70
-43.86
-48.78
-51.00
-49.45
-43.74
-34.38
-22.61
-9.96
1.98
11.99
19.36
23.93
25.97
26.06
24.84
22.93
20.76
18.59
16.57
14.85
13.65
13.15
13.45
14.42
15.79
17.14
18.11
18.42
17.90
16.46
14.01
10.56
6.23
1.36
-3.60
-8.12
-11.88
-14.84
-17.34
-20.03
-23.56
-28.32
-34.13
-40.07
-44.67
-46.26
-43.64
-36.49
-25.56
-12.46
0.76
12.28
20.92
26.35
28.91
29.30
28.23
26.22
23.64
20.82
18.17
16.26
15.59
16.34
18.15
20.19
21.48
21.42
20.09
18.16
16.46
15.44
14.83
13.73
11.15
6.57
0.26
-6.79
-13.37
-18.57
-22.14
-24.46
-26.27
-28.38
-31.44
-35.74
-41.14
-46.94
-51.98
-54.78
-53.94
-48.61
-38.93
-26.06
-11.91
1.49
12.51
20.32
25.02
27.27
27.99
27.97
27.61
27.03
26.29
25.55
25.12
25.34
26.29
27.75
29.14
29.80
29.31
27.72
25.46
23.20
21.47
20.36
19.54
18.35
16.22
12.87
8.48
3.53
-1.39
-5.91
-10.00
-13.94
-18.11
-22.83
-28.20
-34.15
-40.51
-46.92
-52.73
-56.95
-58.31
-55.63
-48.31
-36.79
-22.56
-7.73
5.64
16.12
23.18
27.19
28.97
29.40
29.10
28.44
27.56
26.58
25.70
25.14
25.23
26.12
27.73
29.66
31.28
31.98
31.43
29.76
27.40
24.94
22.72
20.66
18.37
15.35
11.29
6.27
0.75
-4.69
-9.52
-13.51
-16.81
-19.76
-22.82
-26.37
-30.60
-35.55
-41.07
-46.70
-51.64
-54.71
-54.61
-50.29
-41.47
-28.88
-14.23
0.34
12.83
22.00
27.58
30.01
30.04
28.35
25.48
21.87
18.16
15.11
13.41
13.36
14.68
16.62
18.31
19.15
19.07
18.48
17.92
17.66
17.57
17.17
15.90
13.37
9.58
4.85
-0.30
-5.25
-9.59
-13.09
-15.83
-18.18
-20.74
-24.12
-28.70
-34.28
-39.92
-44.07
-44.96
-41.28
-32.75
-20.40
-6.27
7.23
18.20
25.73
30.01
31.85
32.06
31.07
28.96
25.76
21.81
17.87
14.89
13.55
13.98
15.63
17.57
18.94
19.24
18.53
17.26
15.94
14.83
13.77
12.20
9.42
5.01
-1.00
-7.97
-14.91
-20.88
-25.36
-28.40
-30.56
-32.64
-35.44
-39.48
-44.91
-51.34
-57.79
-62.72
-64.41
-61.43
-53.28
-40.63
-25.22
-9.29
5.04
16.30
23.93
28.14
29.68
29.50
28.48
27.26
26.24
25.52
25.09
24.94
25.08
25.49
26.01
26.31
25.98
24.81
22.93
20.81
19.06
18.01
17.40
16.46
14.24
10.13
4.30
-2.38
-8.66
-13.46
-16.40
-17.91
-18.98
-20.82
-24.38
-30.01
-37.32
-45.17
-51.87
-55.57
-54.69
-48.54
-37.56
-23.31
-8.08
5.88
16.91
24.35
28.44
30.01
30.05
29.36
28.41
27.42
26.48
25.69
25.21
25.18
25.55
26.14
26.56
26.45
25.65
24.25
22.60
21.04
19.77
18.62
17.15
14.83
11.29
6.53
0.97
-4.79
-10.13
-14.64
-18.27
-21.26
-24.01
-27.02
-30.78
-35.66
-41.66
-48.15
-53.74
-56.55
-54.82
-47.66
-35.61
-20.60
-5.28
7.93
17.70
23.86
27.18
28.63
28.91
28.25
26.68
24.34
21.68
19.37
18.00
17.86
18.82
20.37
21.87
22.79
22.91
22.34
21.38
20.33
19.27
17.97
15.98
12.89
8.60
3.44
-1.97
-6.93
-11.01
-14.17
-16.71
-19.15
-21.97
-25.55
-30.13
-35.61
-41.44
-46.49
-49.17
-47.96
-41.98
-31.48
-17.91
-3.54
9.34
19.08
25.07
27.65
27.71
26.23
23.89
21.12
18.14
15.26
12.84
11.27
10.83
11.48
12.85
14.43
15.64
16.16
15.86
14.78
13.03
10.65
7.70
4.19
0.28
-3.84
-7.87
-11.61
-15.05
-18.47
-22.39
-27.33
-33.45
-40.12
-45.83
-48.62
-46.78
-39.66
-28.03
-13.88
0.25
12.28
21.02
26.35
28.91
29.50
28.82
27.30
25.18
22.62
19.85
17.01
14.29
11.91
10.16
9.32
9.56
10.74
12.40
13.87
14.44
13.62
11.27
7.62
3.16
-1.62
-6.32
-10.70
-14.73
-18.47
-22.10
-25.88
-30.14
-35.09
-40.65
-46.12
-50.19
-51.19
-47.69
-39.20
-26.52
-11.66
2.78
14.58
22.47
26.48
27.53
26.92
25.74
24.60
23.72
23.09
22.62
22.26
22.01
21.82
21.66
21.49
21.21
20.75
20.04
19.04
17.78
16.32
14.69
12.80
10.45
7.45
3.73
-0.51
-4.89
-9.01
-12.64
-15.93
-19.37
-23.55
-28.89
-35.27
-41.87
-47.24
-49.71
-47.93
-41.44
-30.91
-18.00
-4.87
6.63
15.42
21.38
25.00
26.98
27.78
27.54
26.29
24.26
21.96
20.07
19.14
19.34
20.43
21.82
22.93
23.44
23.28
22.66
21.86
21.04
20.12
18.78
16.55
13.03
8.20
2.51
-3.29
-8.31
-12.07
-14.63
-16.56
-18.71
-21.80
-26.19
-31.77
-38.02
-43.96
-48.34
-49.86
-47.40
-40.57
-29.92
-16.90
-3.57
8.17
16.99
22.47
24.96
25.22
24.04
21.98
19.49
16.84
14.40
12.51
11.55
11.70
12.94
14.97
17.24
19.21
20.36
20.51
19.74
18.23
16.20
13.68
10.51
6.54
1.78
-3.48
-8.66
-13.11
-16.41
-18.50
-19.84
-21.13
-23.19
-26.56
-31.28
-36.73
-41.59
-44.25
-43.28
-38.01
-28.86
-17.27
-5.19
5.58
13.89
19.42
22.48
23.59
23.20
21.59
18.99
15.73
12.33
9.35
7.29
6.40
6.67
7.87
9.62
11.50
13.05
13.89
13.77
12.56
10.37
7.41
4.04
0.55
-2.81
-5.93
-8.82
-11.67
-14.76
-18.44
-22.98
-28.30
-33.79
-38.28
-40.35
-38.79
-33.17
-24.14
-13.17
-2.14
7.38
14.55
19.29
21.99
23.09
22.84
21.27
18.43
14.62
10.45
6.64
3.87
2.48
2.48
3.63
5.46
7.40
8.86
9.29
8.29
5.90
2.48
-1.29
-4.72
-7.41
-9.37
-11.02
-12.98
-15.79
-19.75
-24.73
-30.20
-35.17
-38.46
-38.89
-35.72
-28.88
-19.13
-7.93
3.07
12.37
19.08
23.02
24.56
24.35
23.06
21.15
18.88
16.39
13.88
11.63
10.04
9.41
9.75
10.77
11.86
12.45
12.16
11.01
9.30
7.38
5.48
3.55
1.38
-1.25
-4.43
-8.15
-12.48
-17.55
-23.47
-30.03
-36.39
-41.09
-42.44
-39.26
-31.44
-20.20
-7.68
3.85
12.77
18.58
21.80
23.37
24.11
24.38
24.03
22.88
20.92
18.52
16.23
14.62
13.97
14.21
14.98
15.79
16.21
16.03
15.25
14.00
12.43
10.58
8.38
5.68
2.42
-1.39
-5.62
-10.20
-15.13
-20.57
-26.48
-32.45
-37.48
-40.18
-39.24
-33.94
-24.66
-12.79
-0.29
10.93
19.66
25.53
28.92
30.52
30.99
30.69
29.76
28.24
26.35
24.42
22.91
22.16
22.27
22.97
23.71
23.94
23.35
22.02
20.30
18.64
17.21
15.75
13.69
10.45
5.83
0.23
-5.54
-10.54
-14.17
-16.45
-17.97
-19.58
-22.03
-25.77
-30.88
-37.08
-43.74
-49.85
-54.10
-55.05
-51.67
-43.72
-32.06
-18.46
-5.08
6.26
14.60
19.98
23.18
25.22
26.87
28.47
30.00
31.24
32.03
32.40
32.52
32.65
32.94
33.35
33.65
33.62
33.14
32.35
31.49
30.74
30.06
29.11
27.46
24.77
21.06
16.75
12.44
8.64
5.55
2.99
0.52
-2.28
-5.60
-9.38
-13.35
-17.15
-20.48
-23.25
-25.57
-27.72
-30.22
-33.56
-38.10
-43.75
-49.74
-54.70
-56.96
-55.14
-48.77
-38.54
-26.19
-13.83
-3.22
4.75
10.16
13.76
16.38
18.59
20.57
22.22
23.44
24.30
25.00
25.71
26.55
27.42
28.25
28.96
29.55
30.14
30.74
31.31
31.66
31.58
30.84
29.35
27.13
24.25
20.85
17.11
13.27
9.65
6.54
4.07
2.10
0.26
-1.94
-4.85
-8.44
-12.38
-16.06
-18.98
-21.00
-22.44
-23.94
-26.16
-29.55
-34.09
-39.32
-44.40
-48.30
-50.00
-48.64
-43.84
-35.77
-25.28
-13.73
-2.66
6.66
13.53
17.91
20.27
21.28
21.61
21.66
21.58
21.35
20.84
20.04
19.00
17.97
17.21
16.93
17.10
17.51
17.89
18.00
17.84
17.43
16.83
15.94
14.60
12.61
10.01
7.09
4.27
1.91
0.16
-1.09
-2.13
-3.25
-4.66
-6.46
-8.60
-11.02
-13.60
-16.27
-19.03
-21.96
-25.26
-28.99
-33.06
-36.97
-39.95
-41.04
-39.49
-35.02
-27.99
-19.32
-10.19
-1.77
5.15
10.16
13.29
14.79
14.97
14.10
12.41
10.17
7.73
5.59
4.15
3.75
4.40
5.85
7.64
9.30
10.49
11.07
11.10
10.79
10.35
9.91
9.44
8.78
7.69
5.97
3.58
0.67
-2.49
-5.60
-8.44
-10.96
-13.13
-15.04
-16.79
-18.50
-20.37
-22.62
-25.36
-28.40
-31.19
-32.83
-32.42
-29.30
-23.51
-15.73
-7.15
0.87
7.27
11.49
13.50
13.74
12.78
11.18
9.29
7.29
5.23
3.12
1.07
-0.72
-1.97
-2.45
-2.09
-1.05
0.34
1.66
2.63
3.08
2.93
2.14
0.73
-1.26
-3.67
-6.26
-8.70
-10.73
-12.27
-13.53
-14.96
-17.06
-20.14
-24.05
-28.14
-31.44
-32.90
-31.83
-28.11
-22.19
-14.93
-7.29
-0.12
5.97
10.52
13.21
13.94
12.87
10.43
7.22
3.92
1.06
-0.98
-2.08
-2.26
-1.65
-0.51
0.78
1.84
2.35
2.20
1.55
0.68
-0.15
-0.85
-1.56
-2.60
-4.32
-6.96
-10.59
-15.08
-20.12
-25.24
-29.75
-32.95
-34.12
-32.76
-28.75
-22.38
-14.34
-5.60
2.71
9.57
14.28
16.61
16.86
15.70
13.84
11.84
9.89
7.92
5.83
3.70
1.87
0.80
0.83
1.90
3.53
4.96
5.50
4.81
3.09
0.86
-1.30
-3.09
-4.62
-6.40
-9.00
-12.73
-17.42
-22.44
-26.91
-29.90
-30.73
-29.05
-24.85
-18.54
-10.81
-2.58
5.16
11.57
16.16
18.80
19.74
19.45
18.33
16.70
14.71
12.44
10.02
7.70
5.78
4.51
3.98
4.02
4.30
4.42
4.04
2.99
1.26
-0.97
-3.49
-6.09
-8.71
-11.36
-14.27
-17.73
-21.94
-26.98
-32.51
-37.76
-41.60
-42.79
-40.41
-34.27
-25.08
-14.31
-3.78
5.03
11.33
15.11
16.96
17.68
17.95
18.07
18.10
17.88
17.37
16.62
15.85
15.33
15.24
15.59
16.16
16.65
16.69
16.06
14.60
12.29
9.12
5.18
0.63
-4.24
-9.06
-13.53
-17.51
-21.16
-24.83
-29.02
-34.11
-40.14
-46.59
-52.35
-55.90
-55.78
-51.10
-42.06
-29.87
-16.51
-3.89
6.61
14.55
20.27
24.35
27.28
29.28
30.34
30.50
29.97
29.14
28.38
27.90
27.72
27.66
27.52
27.14
26.44
25.46
24.27
22.94
21.46
19.68
17.29
13.95
9.50
4.12
-1.64
-7.00
-11.33
-14.44
-16.68
-18.85
-21.79
-26.17
-32.18
-39.44
-47.11
-53.84
-58.06
-58.26
-53.46
-43.65
-30.01
-14.63
0.13
12.35
21.14
26.68
29.89
31.87
33.38
34.72
35.82
36.58
36.99
37.25
37.55
37.99
38.44
38.66
38.42
37.72
36.71
35.62
34.64
33.70
32.57
30.92
28.50
25.31
21.58
17.65
13.81
10.14
6.45
2.46
-2.06
-7.13
-12.40
-17.36
-21.49
-24.58
-26.84
-28.89
-31.49
-35.29
-40.47
-46.53
-52.30
-56.12
-56.39
-52.01
-42.91
-30.15
-15.62
-1.48
10.50
19.38
25.18
28.60
30.52
31.74
32.70
33.60
34.49
35.43
36.42
37.44
38.40
39.07
39.28
38.94
38.13
37.01
35.78
34.45
32.91
31.00
28.55
25.64
22.50
19.39
16.57
14.05
11.73
9.41
6.89
4.07
0.97
-2.35
-5.80
-9.31
-12.81
-16.26
-19.68
-23.24
-27.24
-31.98
-37.50
-43.25
-48.06
-50.31
-48.59
-42.19
-31.58
-18.40
-4.84
7.05
16.00
21.77
24.89
26.18
26.41
25.98
25.07
23.81
22.41
21.29
20.90
21.56
23.20
25.46
27.79
29.62
30.59
30.65
29.92
28.61
26.94
24.99
22.80
20.41
17.80
14.99
11.90
8.48
4.66
0.56
-3.63
-7.58
-11.03
-13.88
-16.23
-18.35
-20.68
-23.63
-27.49
-32.23
-37.35
-41.85
-44.43
-43.88
-39.50
-31.50
-20.94
-9.43
1.33
10.15
16.54
20.57
22.72
23.43
23.00
21.63
19.50
17.00
14.69
13.16
12.76
13.55
15.14
16.95
18.40
19.15
19.18
18.69
17.95
17.05
15.87
14.11
11.48
7.86
3.46
-1.27
-5.64
-9.07
-11.25
-12.29
-12.74
-13.40
-15.05
-18.17
-22.76
-28.20
-33.42
-37.11
-38.16
-35.92
-30.42
-22.40
-13.03
-3.69
4.41
10.47
14.21
15.81
15.76
14.61
12.72
10.34
7.55
4.55
1.71
-0.48
-1.55
-1.31
0.07
2.10
4.21
5.93
7.00
7.28
6.71
5.26
2.95
-0.04
-3.41
-6.77
-9.87
-12.64
-15.28
-18.13
-21.55
-25.60
-29.92
-33.71
-35.85
-35.36
-31.70
-25.09
-16.47
-7.18
1.43
8.37
13.25
16.11
17.30
17.22
16.24
14.62
12.62
10.43
8.25
6.28
4.67
3.63
3.28
3.63
4.47
5.41
5.97
5.79
4.70
2.80
0.41
-2.20
-4.87
-7.62
-10.60
-14.00
-17.85
-21.96
-25.96
-29.33
-31.43
-31.67
-29.54
-24.83
-17.74
-9.04
0.23
8.77
15.55
20.03
22.27
22.77
22.13
20.82
18.99
16.66
13.84
10.80
8.09
6.31
5.85
6.64
8.07
9.20
9.20
7.66
4.77
1.20
-2.24
-4.99
-6.91
-8.31
-9.72
-11.67
-14.61
-18.54
-23.17
-27.87
-31.68
-33.57
-32.64
-28.53
-21.49
-12.51
-2.93
5.88
12.89
17.64
20.22
21.16
21.15
20.79
20.36
19.83
18.93
17.48
15.58
13.64
12.17
11.50
11.62
12.13
12.52
12.43
11.73
10.54
8.93
6.84
4.10
0.60
-3.53
-7.92
-12.13
-15.92
-19.37
-22.83
-26.76
-31.28
-35.99
-39.93
-41.78
-40.36
-35.18
-26.73
-16.34
-5.80
3.34
10.14
14.49
16.87
17.92
18.21
18.09
17.80
17.58
17.73
18.45
19.71
21.18
22.27
22.47
21.50
19.53
17.04
14.60
12.65
11.30
10.33
9.25
7.65
5.28
2.21
-1.31
-4.87
-8.13
-10.83
-12.87
-14.34
-15.59
-17.21
-19.86
-24.00
-29.50
-35.43
-40.22
-42.13
-39.91
-33.45
-23.77
-12.75
-2.36
5.98
11.78
15.37
17.49
18.83
19.74
20.26
20.40
20.25
20.09
20.22
20.76
21.56
22.23
22.42
21.94
20.95
19.80
18.89
18.42
18.35
18.37
18.06
17.04
15.10
12.27
8.75
4.97
1.28
-2.06
-5.03
-7.76
-10.38
-12.97
-15.45
-17.68
-19.61
-21.39
-23.38
-26.08
-29.85
-34.63
-39.72
-43.84
-45.44
-43.27
-36.86
-26.84
-14.77
-2.67
7.62
14.97
19.21
20.88
20.92
20.19
19.30
18.52
17.96
17.64
17.64
18.03
18.81
19.94
21.29
22.62
23.69
24.32
24.31
23.56
22.03
19.78
16.95
13.76
10.51
7.50
5.03
3.23
2.01
1.03
-0.29
-2.44
-5.67
-9.72
-14.00
-17.78
-20.66
-22.72
-24.56
-26.94
-30.37
-34.79
-39.44
-43.13
-44.58
-42.94
-38.00
-30.28
-20.78
-10.67
-1.04
7.33
13.93
18.59
21.32
22.36
22.06
20.89
19.41
18.05
17.14
16.80
17.01
17.66
18.55
19.46
20.07
20.11
19.41
18.03
16.23
14.29
12.38
10.43
8.20
5.41
2.02
-1.75
-5.45
-8.67
-11.23
-13.32
-15.24
-17.38
-19.96
-23.04
-26.63
-30.61
-34.74
-38.55
-41.29
-42.04
-39.98
-34.70
-26.44
-16.13
-5.15
5.02
13.24
18.91
21.96
22.73
21.68
19.27
15.86
11.88
7.91
4.54
2.29
1.40
1.72
2.84
4.29
5.72
6.89
7.68
7.90
7.30
5.70
3.11
-0.16
-3.63
-6.87
-9.67
-12.11
-14.46
-17.07
-20.15
-23.78
-27.92
-32.18
-35.85
-37.90
-37.27
-33.26
-25.89
-16.06
-5.31
4.69
12.66
18.04
20.95
21.93
21.56
20.25
18.17
15.42
12.14
8.63
5.34
2.76
1.35
1.28
2.40
4.21
5.96
6.96
6.81
5.47
3.23
0.50
-2.39
-5.37
-8.53
-12.07
-16.17
-20.97
-26.54
-32.74
-39.14
-44.85
-48.62
-49.05
-45.16
-36.85
-25.02
-11.50
1.60
12.45
20.05
24.35
26.05
26.11
25.34
24.12
22.40
20.06
17.11
13.97
11.35
9.91
9.91
11.04
12.48
13.26
12.68
10.55
7.23
3.37
-0.46
-3.91
-7.05
-10.19
-13.73
-18.04
-23.38
-29.78
-37.01
-44.34
-50.58
-54.15
-53.54
-47.88
-37.34
-23.26
-7.85
6.49
17.82
25.26
28.99
30.01
29.57
28.71
27.90
27.15
26.17
24.71
22.76
20.54
18.48
16.89
15.92
15.39
15.00
14.39
13.22
11.36
8.74
5.41
1.38
-3.30
-8.60
-14.34
-20.31
-26.32
-32.36
-38.76
-45.87
-53.73
-61.59
-67.78
-70.10
-66.72
-56.99
-41.93
-23.92
-5.82
10.01
22.33
31.06
36.83
40.35
42.11
42.35
41.38
39.65
37.83
36.53
36.05
36.21
36.49
36.28
35.18
33.19
30.74
28.38
26.57
25.34
24.24
22.44
19.10
13.72
6.47
-1.78
-9.82
-16.47
-21.15
-24.14
-26.43
-29.40
-34.30
-41.73
-51.27
-61.48
-70.15
-74.79
-73.38
-65.01
-50.28
-31.25
-10.80
8.22
23.81
35.21
42.68
47.01
49.01
49.13
47.66
44.91
41.50
38.31
36.24
35.80
36.83
38.62
40.10
40.41
39.23
36.88
34.10
31.67
29.95
28.67
27.02
24.04
19.14
12.46
4.86
-2.50
-8.66
-13.26
-16.68
-19.71
-23.22
-27.82
-33.80
-41.12
-49.38
-57.72
-64.58
-67.99
-65.93
-57.25
-42.29
-23.06
-2.66
15.74
29.91
39.14
44.02
45.95
46.30
45.92
45.10
43.72
41.74
39.39
37.24
35.91
35.78
36.72
38.11
39.11
39.06
37.79
35.64
33.24
31.13
29.42
27.76
25.50
22.01
16.98
10.64
3.61
-3.27
-9.27
-13.98
-17.44
-20.07
-22.48
-25.38
-29.41
-34.92
-41.85
-49.52
-56.58
-61.08
-61.08
-55.28
-43.59
-27.38
-9.13
8.44
23.08
33.64
40.07
43.03
43.40
41.93
39.16
35.54
31.64
28.17
25.83
25.04
25.83
27.73
29.97
31.75
32.54
32.19
30.93
29.20
27.31
25.30
22.93
19.86
15.81
10.84
5.33
-0.16
-5.10
-9.19
-12.57
-15.65
-18.96
-22.97
-27.97
-33.94
-40.60
-47.21
-52.64
-55.43
-54.19
-48.07
-37.19
-22.76
-6.79
8.41
20.94
29.68
34.50
35.93
34.88
32.27
28.72
24.68
20.43
16.28
12.57
9.69
7.90
7.27
7.64
8.70
10.14
11.70
13.17
14.26
14.60
13.80
11.51
7.73
2.78
-2.71
-8.01
-12.55
-16.16
-19.12
-22.03
-25.64
-30.45
-36.36
-42.45
-47.13
-48.57
-45.44
-37.40
-25.42
-11.45
2.17
13.44
21.27
25.52
26.75
25.84
23.58
20.47
16.76
12.75
8.77
5.34
3.02
2.17
2.87
4.74
7.18
9.47
11.07
11.64
11.06
9.36
6.64
3.10
-1.04
-5.49
-9.97
-14.27
-18.28
-22.08
-25.88
-29.99
-34.60
-39.50
-43.86
-46.29
-45.28
-39.87
-30.19
-17.55
-4.11
7.94
17.10
22.87
25.61
26.10
25.09
23.04
20.18
16.68
12.84
9.09
6.04
4.27
4.03
5.16
7.03
8.78
9.63
9.21
7.70
5.56
3.23
0.78
-2.06
-5.62
-10.03
-14.99
-19.92
-24.35
-28.23
-31.90
-35.74
-39.65
-42.79
-43.75
-41.20
-34.51
-24.21
-11.91
0.31
10.64
18.02
22.30
23.93
23.65
22.08
19.64
16.61
13.31
10.09
7.41
5.68
5.09
5.64
7.03
8.82
10.51
11.64
11.90
11.19
9.57
7.24
4.41
1.21
-2.41
-6.54
-11.31
-16.75
-22.63
-28.58
-34.01
-38.21
-40.46
-40.10
-36.65
-30.03
-20.63
-9.40
2.30
13.01
21.55
27.25
30.08
30.46
29.13
26.80
24.02
21.20
18.59
16.43
14.91
14.18
14.19
14.71
15.35
15.80
15.83
15.35
14.35
12.74
10.42
7.29
3.35
-1.16
-5.91
-10.51
-14.76
-18.65
-22.35
-26.19
-30.48
-35.39
-40.74
-45.79
-49.32
-49.88
-46.30
-38.31
-26.80
-13.69
-1.16
9.02
16.13
20.49
23.00
24.56
25.55
25.93
25.46
24.13
22.29
20.55
19.54
19.50
20.24
21.20
21.72
21.39
20.19
18.43
16.63
15.20
14.27
13.62
12.78
11.23
8.60
4.82
0.23
-4.60
-9.06
-12.76
-15.63
-17.98
-20.40
-23.50
-27.77
-33.27
-39.64
-45.95
-50.89
-53.02
-51.16
-44.88
-34.74
-22.21
-9.21
2.45
11.64
18.08
22.11
24.33
25.35
25.58
25.40
25.11
25.01
25.29
25.97
26.88
27.77
28.40
28.68
28.63
28.32
27.86
27.21
26.20
24.59
22.27
19.23
15.76
12.30
9.31
6.99
5.19
3.42
1.18
-1.78
-5.40
-9.26
-12.86
-15.93
-18.42
-20.60
-22.83
-25.58
-29.22
-34.11
-40.25
-47.17
-53.64
-57.86
-57.99
-52.84
-42.52
-28.56
-13.42
0.35
10.98
17.85
21.46
22.88
23.15
22.91
22.38
21.56
20.50
19.42
18.66
18.61
19.40
20.89
22.63
24.14
25.11
25.46
25.32
24.84
24.08
22.93
21.22
18.92
16.09
12.98
9.79
6.62
3.42
0.09
-3.43
-7.14
-10.99
-14.93
-18.85
-22.62
-26.04
-29.01
-31.63
-34.18
-37.15
-40.83
-45.04
-48.92
-51.04
-49.87
-44.45
-34.80
-22.07
-8.23
4.62
14.87
21.80
25.51
26.58
25.73
23.57
20.57
17.26
14.21
11.98
10.97
11.22
12.42
14.05
15.53
16.55
17.03
17.09
16.88
16.45
15.69
14.37
12.26
9.20
5.27
0.73
-4.03
-8.60
-12.64
-15.97
-18.63
-20.84
-23.06
-25.78
-29.49
-34.41
-40.24
-46.12
-50.71
-52.48
-50.28
-43.78
-33.58
-21.11
-8.15
3.74
13.38
20.24
24.23
25.60
24.77
22.36
19.08
15.64
12.62
10.35
8.87
8.14
8.08
8.63
9.76
11.27
12.82
13.91
14.04
12.85
10.22
6.31
1.50
-3.73
-8.96
-13.81
-18.05
-21.65
-24.76
-27.79
-31.33
-35.86
-41.36
-47.06
-51.39
-52.47
-48.87
-40.26
-27.69
-13.25
0.66
12.16
20.36
25.29
27.60
27.99
26.92
24.63
21.23
16.94
12.17
7.55
3.72
1.22
0.28
0.82
2.38
4.36
6.11
7.12
7.11
6.01
3.87
0.84
-2.93
-7.23
-11.84
-16.55
-21.27
-26.10
-31.32
-37.15
-43.38
-49.10
-52.74
-52.53
-47.19
-36.60
-22.00
-5.70
9.70
22.16
30.64
35.27
36.81
36.20
34.07
30.76
26.44
21.38
16.18
11.69
8.75
7.84
8.85
11.00
13.19
14.39
14.09
12.33
9.52
6.12
2.34
-1.88
-6.68
-12.08
-17.95
-24.15
-30.68
-37.78
-45.58
-53.55
-60.33
-63.86
-62.18
-54.20
-40.47
-23.02
-4.71
11.72
24.49
33.05
37.84
39.79
39.80
38.52
36.39
33.77
31.02
28.50
26.52
25.31
24.95
25.36
26.16
26.71
26.19
23.92
19.67
13.79
7.15
0.72
-4.93
-9.74
-14.18
-18.89
-24.40
-30.95
-38.55
-47.05
-56.03
-64.57
-71.16
-73.77
-70.60
-60.77
-44.87
-25.07
-4.38
14.22
28.70
38.34
43.64
45.78
46.06
45.45
44.53
43.54
42.57
41.72
41.08
40.69
40.42
40.06
39.36
38.24
36.87
35.50
34.30
33.08
31.29
28.15
23.13
16.22
8.07
-0.23
-7.64
-13.61
-18.25
-22.32
-26.85
-32.82
-40.71
-50.20
-60.01
-68.06
-71.88
-69.38
-59.62
-43.26
-22.56
-0.74
18.99
34.40
44.68
50.39
52.90
53.63
53.52
52.88
51.65
49.86
47.87
46.33
45.82
46.52
47.92
49.07
49.01
47.35
44.45
41.23
38.62
37.00
35.96
34.50
31.68
26.92
20.42
12.98
5.58
-0.98
-6.38
-10.78
-14.67
-18.55
-22.93
-28.27
-34.96
-43.10
-52.26
-61.11
-67.51
-69.01
-63.82
-51.66
-34.11
-14.14
4.90
20.47
31.47
38.22
41.82
43.41
43.78
43.33
42.32
41.08
40.02
39.50
39.60
40.21
41.06
41.95
42.74
43.34
43.63
43.41
42.41
40.43
37.41
33.47
28.90
24.02
19.06
14.13
9.26
4.46
-0.21
-4.68
-8.89
-12.78
-16.46
-20.04
-23.74
-27.84
-32.59
-38.22
-44.80
-52.04
-59.21
-65.07
-68.01
-66.56
-59.85
-48.03
-32.42
-15.19
1.18
14.68
24.16
29.55
31.65
31.59
30.42
28.84
27.15
25.47
23.91
22.68
22.06
22.23
23.14
24.55
25.98
27.00
27.33
26.90
25.81
24.22
22.27
19.96
17.18
13.76
9.58
4.72
-0.57
-5.82
-10.55
-14.42
-17.31
-19.43
-21.12
-22.81
-24.79
-27.24
-30.31
-34.08
-38.55
-43.40
-47.83
-50.49
-49.87
-44.85
-35.20
-21.96
-7.16
6.78
17.90
25.16
28.60
29.04
27.58
25.20
22.51
19.90
17.54
15.61
14.23
13.55
13.58
14.25
15.37
16.60
17.55
17.83
17.24
15.81
13.85
11.73
9.70
7.77
5.71
3.20
0.07
-3.54
-7.19
-10.38
-12.83
-14.60
-16.02
-17.52
-19.39
-21.73
-24.51
-27.72
-31.38
-35.45
-39.55
-42.83
-44.06
-42.05
-36.23
-27.07
-16.03
-5.06
4.15
10.76
14.89
17.26
18.59
19.26
19.14
18.00
15.81
13.00
10.37
8.67
8.32
9.29
11.06
12.93
14.28
14.77
14.38
13.39
12.20
11.03
9.91
8.58
6.70
4.06
0.71
-3.05
-6.74
-10.00
-12.58
-14.45
-15.76
-16.77
-17.82
-19.32
-21.61
-24.85
-28.91
-33.29
-37.18
-39.62
-39.74
-37.01
-31.45
-23.60
-14.42
-5.10
3.24
9.82
14.19
16.39
16.81
16.01
14.61
13.06
11.59
10.25
9.05
7.98
7.16
6.72
6.64
6.76
6.75
6.32
5.38
4.13
2.85
1.81
1.03
0.28
-0.77
-2.42
-4.70
-7.41
-10.16
-12.58
-14.39
-15.56
-16.38
-17.23
-18.59
-20.77
-23.85
-27.53
-31.24
-34.18
-35.49
-34.50
-30.91
-24.96
-17.40
-9.34
-1.96
3.79
7.42
8.95
8.77
7.44
5.46
3.25
1.12
-0.70
-1.97
-2.49
-2.25
-1.44
-0.40
0.48
1.01
1.27
1.58
2.18
3.08
3.86
3.90
2.78
0.47
-2.49
-5.32
-7.43
-8.71
-9.71
-11.21
-13.94
-18.09
-23.22
-28.34
-32.22
-33.81
-32.40
-27.97
-21.09
-12.82
-4.34
3.24
9.18
13.18
15.29
15.80
15.12
13.66
11.78
9.78
7.84
6.11
4.75
3.95
3.91
4.66
5.99
7.38
8.16
7.77
6.03
3.17
-0.18
-3.34
-5.87
-7.67
-8.93
-10.06
-11.44
-13.33
-15.88
-19.07
-22.70
-26.35
-29.31
-30.69
-29.67
-25.81
-19.29
-10.96
-2.12
5.87
11.97
15.74
17.26
17.04
15.72
13.87
11.92
10.14
8.62
7.40
6.51
6.00
5.94
6.32
7.02
7.71
7.96
7.39
5.83
3.40
0.43
-2.66
-5.62
-8.36
-10.92
-13.37
-15.70
-17.87
-19.95
-22.16
-24.82
-28.06
-31.50
-34.15
-34.74
-32.21
-26.38
-18.10
-9.06
-1.00
4.90
8.47
10.30
11.20
11.78
12.11
12.00
11.28
10.12
8.96
8.26
8.18
8.48
8.81
8.88
8.78
8.80
9.24
10.03
10.71
10.58
9.08
6.10
2.04
-2.39
-6.50
-9.91
-12.68
-15.17
-17.90
-21.34
-25.76
-31.19
-37.24
-43.11
-47.69
-49.77
-48.41
-43.33
-35.05
-24.75
-13.88
-3.79
4.63
11.02
15.48
18.30
19.84
20.43
20.36
20.00
19.64
19.55
19.81
20.34
20.93
21.35
21.42
21.04
20.22
18.97
17.29
15.27
13.05
10.70
8.29
5.69
2.73
-0.73
-4.63
-8.69
-12.47
-15.63
-18.14
-20.35
-22.92
-26.48
-31.35
-37.30
-43.49
-48.64
-51.31
-50.41
-45.41
-36.67
-25.29
-12.90
-1.21
8.44
15.38
19.68
21.93
22.98
23.49
23.86
24.14
24.15
23.85
23.39
23.21
23.76
25.34
27.74
30.29
32.10
32.42
31.01
28.17
24.60
21.05
18.00
15.49
13.13
10.40
6.93
2.71
-1.92
-6.44
-10.43
-13.81
-16.76
-19.72
-23.09
-27.11
-31.82
-37.13
-42.81
-48.32
-52.78
-54.86
-53.26
-47.12
-36.68
-23.30
-9.18
3.48
13.26
19.76
23.58
25.67
26.82
27.33
27.13
26.06
24.26
22.26
20.76
20.32
21.08
22.67
24.40
25.62
25.99
25.63
24.92
24.16
23.42
22.38
20.51
17.39
12.94
7.54
1.85
-3.37
-7.64
-10.82
-13.10
-14.93
-16.86
-19.41
-23.04
-28.09
-34.54
-41.97
-49.26
-54.79
-56.74
-53.69
-45.22
-32.17
-16.45
-0.52
13.45
24.04
30.81
34.11
34.73
33.50
31.09
28.07
24.89
22.00
19.76
18.42
17.96
18.09
18.43
18.61
18.45
17.98
17.33
16.58
15.69
14.38
12.38
9.52
5.91
1.82
-2.39
-6.40
-10.09
-13.54
-17.00
-20.89
-25.68
-31.61
-38.47
-45.32
-50.53
-52.20
-48.89
-40.19
-27.02
-11.38
4.18
17.48
27.14
32.81
34.97
34.56
32.57
29.79
26.73
23.68
20.83
18.39
16.63
15.77
15.94
17.04
18.70
20.42
21.62
21.86
20.85
18.56
15.12
10.85
6.17
1.49
-2.90
-6.89
-10.59
-14.32
-18.43
-23.25
-28.90
-35.10
-41.09
-45.56
-46.97
-43.91
-35.78
-23.06
-7.39
8.91
23.50
34.68
41.74
44.87
44.85
42.70
39.30
35.38
31.45
27.88
24.99
23.01
22.03
21.99
22.65
23.59
24.36
24.54
23.82
22.09
19.36
15.73
11.31
6.21
0.61
-5.20
-10.93
-16.39
-21.66
-27.12
-33.24
-40.19
-47.46
-53.72
-57.06
-55.65
-48.54
-36.16
-20.31
-3.53
11.76
23.99
32.64
38.07
40.98
42.04
41.75
40.54
38.91
37.38
36.34
35.85
35.68
35.41
34.69
33.47
31.91
30.34
28.95
27.71
26.35
24.50
21.86
18.28
13.84
8.71
3.11
-2.65
-8.26
-13.42
-17.93
-21.86
-25.76
-30.41
-36.53
-44.07
-51.91
-57.89
-59.56
-55.29
-44.99
-30.27
-13.86
1.48
13.96
23.05
29.20
33.22
35.72
37.00
37.11
36.21
34.65
32.99
31.72
31.16
31.32
31.94
32.52
32.53
31.65
29.85
27.51
25.15
23.16
21.49
19.61
16.83
12.67
7.21
1.15
-4.54
-9.09
-12.20
-14.15
-15.54
-17.00
-19.12
-22.34
-26.99
-33.03
-39.87
-46.22
-50.33
-50.54
-45.97
-36.92
-24.77
-11.54
0.87
11.20
18.94
24.25
27.50
29.03
29.06
27.82
25.64
23.05
20.68
19.16
18.86
19.81
21.56
23.48
24.92
25.50
25.15
24.09
22.59
20.80
18.67
16.00
12.62
8.47
3.68
-1.45
-6.56
-11.30
-15.42
-18.84
-21.62
-23.95
-26.16
-28.65
-31.82
-35.79
-40.30
-44.53
-47.22
-47.00
-42.92
-34.91
-23.81
-11.23
1.06
11.55
19.43
24.54
27.13
27.64
26.49
24.04
20.77
17.18
13.82
11.16
9.51
8.89
9.07
9.69
10.40
10.95
11.24
11.33
11.22
10.86
9.98
8.33
5.70
2.17
-1.94
-6.11
-9.77
-12.59
-14.49
-15.77
-16.99
-18.89
-22.10
-26.81
-32.56
-38.11
-41.86
-42.34
-38.74
-31.34
-21.29
-10.31
-0.02
8.42
14.52
18.29
20.04
20.18
19.06
17.02
14.35
11.39
8.42
5.77
3.75
2.58
2.39
3.05
4.26
5.60
6.62
6.96
6.43
4.98
2.72
-0.23
-3.68
-7.40
-11.11
-14.48
-17.28
-19.51
-21.53
-23.83
-26.84
-30.53
-34.19
-36.63
-36.55
-33.13
-26.38
-17.16
-6.97
2.60
10.29
15.41
17.98
18.46
17.62
16.14
14.48
12.70
10.66
8.22
5.46
2.83
0.91
0.19
0.69
2.04
3.56
4.65
4.90
4.27
2.87
0.89
-1.55
-4.38
-7.45
-10.60
-13.64
-16.55
-19.48
-22.67
-26.19
-29.62
-32.11
-32.47
-29.71
-23.54
-14.62
-4.32
5.67
14.01
20.04
23.86
25.92
26.57
25.92
23.82
20.30
15.73
10.99
7.09
4.78
4.30
5.10
6.31
7.03
6.70
5.28
3.10
0.68
-1.58
-3.56
-5.41
-7.43
-9.92
-13.08
-16.94
-21.37
-26.09
-30.75
-34.81
-37.62
-38.39
-36.41
-31.31
-23.28
-13.19
-2.41
7.48
15.22
20.14
22.36
22.51
21.44
19.93
18.35
16.73
14.97
13.00
11.03
9.42
8.53
8.45
8.94
9.43
9.29
8.13
5.93
3.06
0.04
-2.69
-5.11
-7.46
-10.22
-13.85
-18.56
-24.26
-30.49
-36.48
-41.18
-43.54
-42.63
-38.02
-29.90
-19.24
-7.55
3.53
12.61
18.97
22.61
24.05
24.04
23.21
21.90
20.17
18.03
15.55
13.05
10.95
9.68
9.46
10.21
11.52
12.81
13.50
13.17
11.74
9.42
6.56
3.55
0.63
-2.12
-4.73
-7.25
-9.83
-12.61
-15.92
-20.04
-24.98
-30.19
-34.45
-36.17
-34.01
-27.49
-17.33
-5.29
6.51
16.35
23.34
27.50
29.38
29.60
28.58
26.56
23.75
20.43
17.11
14.31
12.37
11.38
11.16
11.31
11.36
10.89
9.65
7.59
4.81
1.55
-1.95
-5.56
-9.20
-12.91
-16.68
-20.40
-23.96
-27.33
-30.65
-34.15
-37.90
-41.50
-43.97
-44.02
-40.51
-33.09
-22.51
-10.39
1.31
11.01
17.97
22.25
24.46
25.14
24.65
23.17
20.86
18.07
15.33
13.16
11.90
11.56
11.81
12.18
12.22
11.58
10.15
7.95
5.19
2.14
-0.91
-3.92
-6.93
-10.13
-13.64
-17.47
-21.58
-25.91
-30.46
-35.12
-39.55
-42.94
-44.14
-42.03
-35.97
-26.27
-14.15
-1.46
9.95
18.78
24.58
27.54
28.20
27.13
24.68
21.14
16.82
12.20
8.01
5.06
3.88
4.50
6.45
8.75
10.41
10.72
9.60
7.42
4.86
2.42
0.18
-2.17
-5.04
-8.64
-12.90
-17.54
-22.39
-27.41
-32.55
-37.35
-40.70
-41.20
-37.53
-29.36
-17.56
-3.98
9.22
20.30
28.33
33.18
35.10
34.42
31.43
26.54
20.45
14.15
8.80
5.35
4.37
5.81
8.98
12.74
15.75
16.94
15.89
12.96
9.02
5.09
1.77
-0.96
-3.66
-7.08
-11.79
-17.94
-25.09
-32.40
-38.69
-42.69
-43.23
-39.54
-31.63
-20.40
-7.45
5.37
16.50
25.09
31.02
34.64
36.32
36.19
34.18
30.29
24.96
19.11
14.07
11.01
10.47
12.16
14.96
17.56
18.85
18.39
16.35
13.23
9.55
5.60
1.44
-2.89
-7.31
-11.71
-16.07
-20.61
-25.56
-30.85
-35.82
-39.11
-39.15
-34.72
-25.63
-12.92
1.42
15.15
26.36
34.10
38.33
39.67
38.99
37.03
34.25
30.90
27.26
23.68
20.72
18.89
18.38
18.95
19.95
20.58
20.26
18.84
16.56
13.89
11.22
8.66
5.99
2.86
-1.00
-5.66
-10.99
-16.75
-22.68
-28.50
-33.78
-37.77
-39.44
-37.68
-31.82
-22.10
-9.82
3.01
14.31
22.73
27.99
30.70
31.86
32.23
32.10
31.36
29.91
27.91
25.88
24.44
23.96
24.34
25.10
25.64
25.47
24.51
22.97
21.14
19.19
17.01
14.27
10.65
6.10
0.91
-4.32
-8.89
-12.31
-14.48
-15.79
-16.96
-18.79
-21.82
-26.15
-31.15
-35.58
-37.90
-36.81
-31.78
-23.28
-12.70
-1.81
7.81
15.25
20.36
23.44
25.00
25.40
24.85
23.54
21.73
19.82
18.29
17.50
17.61
18.49
19.75
20.89
21.40
20.98
19.63
17.61
15.36
13.23
11.41
9.82
8.15
6.09
3.41
0.14
-3.48
-7.01
-10.07
-12.37
-13.88
-14.83
-15.63
-16.77
-18.63
-21.38
-24.83
-28.45
-31.39
-32.64
-31.41
-27.37
-21.00
-13.27
-5.39
1.70
7.51
12.02
15.39
17.68
18.84
18.83
17.79
16.12
14.42
13.16
12.58
12.59
12.95
13.40
13.78
13.98
13.88
13.40
12.51
11.32
9.98
8.57
7.06
5.25
2.89
-0.13
-3.65
-7.22
-10.37
-12.69
-14.06
-14.69
-14.96
-15.27
-15.98
-17.20
-18.95
-21.04
-23.13
-24.74
-25.25
-24.15
-21.11
-16.22
-10.05
-3.52
2.32
6.64
9.05
9.69
9.08
7.89
6.65
5.60
4.73
3.94
3.26
2.91
3.14
4.10
5.58
7.07
8.02
8.18
7.64
6.88
6.32
6.08
5.86
5.10
3.39
0.74
-2.35
-5.13
-6.99
-7.72
-7.58
-7.17
-7.22
-8.28
-10.60
-14.05
-18.16
-22.18
-25.34
-26.92
-26.43
-23.76
-19.21
-13.48
-7.50
-2.19
1.70
3.88
4.50
4.01
2.93
1.70
0.47
-0.70
-1.84
-2.83
-3.46
-3.45
-2.67
-1.19
0.60
2.17
3.05
3.02
2.23
0.99
-0.35
-1.66
-3.07
-4.71
-6.64
-8.66
-10.44
-11.72
-12.47
-13.01
-13.85
-15.42
-17.77
-20.45
-22.58
-23.17
-21.55
-17.64
-12.10
-6.08
-0.79
2.98
5.05
5.75
5.65
5.19
4.59
3.82
2.87
1.84
0.93
0.34
0.10
0.14
0.25
0.27
0.03
-0.54
-1.51
-2.83
-4.34
-5.78
-6.81
-7.29
-7.29
-7.21
-7.51
-8.55
-10.36
-12.69
-15.16
-17.40
-19.16
-20.25
-20.30
-18.87
-15.61
-10.48
-4.06
2.59
8.30
12.19
14.03
14.14
13.20
11.75
10.09
8.27
6.35
4.50
2.99
2.07
1.73
1.74
1.69
1.30
0.53
-0.50
-1.56
-2.55
-3.50
-4.55
-5.77
-7.14
-8.43
-9.45
-10.13
-10.61
-11.25
-12.40
-14.26
-16.61
-18.87
-20.21
-19.88
-17.50
-13.24
-7.75
-1.95
3.20
7.09
9.44
10.36
10.21
9.55
8.84
8.34
8.06
7.75
7.18
6.31
5.35
4.65
4.52
4.99
5.71
6.21
6.02
4.95
3.15
0.98
-1.23
-3.25
-5.08
-6.87
-8.79
-11.06
-13.73
-16.82
-20.17
-23.42
-26.13
-27.68
-27.50
-25.25
-21.02
-15.35
-9.21
-3.64
0.60
3.22
4.47
4.87
4.98
5.13
5.41
5.72
5.90
5.86
5.58
5.14
4.62
4.18
3.93
3.91
4.08
4.22
4.09
3.44
2.16
0.25
-2.13
-4.74
-7.32
-9.65
-11.60
-13.16
-14.45
-15.72
-17.32
-19.56
-22.57
-26.11
-29.49
-31.68
-31.70
-28.91
-23.36
-15.82
-7.50
0.36
6.82
11.43
14.17
15.22
14.88
13.42
11.18
8.62
6.31
4.73
4.20
4.66
5.72
6.84
7.56
7.65
7.24
6.63
6.11
5.76
5.39
4.64
3.20
0.98
-1.88
-4.99
-7.96
-10.52
-12.60
-14.44
-16.46
-19.08
-22.54
-26.75
-31.23
-35.24
-37.92
-38.48
-36.39
-31.51
-24.20
-15.29
-5.93
2.70
9.65
14.42
17.10
18.10
18.00
17.23
16.10
14.78
13.48
12.48
12.07
12.42
13.41
14.68
15.75
16.28
16.26
15.96
15.73
15.69
15.56
14.75
12.70
9.14
4.36
-0.95
-5.95
-10.07
-13.20
-15.58
-17.68
-19.90
-22.50
-25.67
-29.45
-33.77
-38.23
-42.04
-44.04
-43.08
-38.48
-30.35
-19.64
-7.86
3.41
13.00
20.26
25.05
27.50
27.83
26.38
23.63
20.22
16.90
14.30
12.85
12.61
13.31
14.55
15.93
17.13
18.02
18.53
18.69
18.44
17.68
16.27
14.04
10.92
7.03
2.64
-1.82
-5.93
-9.37
-12.14
-14.51
-17.01
-20.22
-24.54
-29.92
-35.68
-40.59
-43.16
-42.05
-36.65
-27.27
-15.23
-2.36
9.49
18.97
25.47
29.03
30.04
29.00
26.41
22.80
18.86
15.37
13.07
12.29
12.93
14.44
16.12
17.47
18.35
18.92
19.42
19.93
20.25
19.96
18.62
15.99
12.11
7.33
2.17
-2.85
-7.34
-11.14
-14.36
-17.35
-20.60
-24.58
-29.57
-35.33
-41.08
-45.45
-46.92
-44.21
-36.80
-25.31
-11.31
3.08
15.80
25.42
31.50
34.41
35.05
34.35
32.97
31.32
29.52
27.75
26.28
25.42
25.30
25.76
26.39
26.71
26.56
26.04
25.45
24.97
24.42
23.37
21.28
17.92
13.46
8.45
3.49
-1.00
-4.86
-8.17
-11.17
-14.16
-17.47
-21.54
-26.75
-33.17
-40.26
-46.78
-51.02
-51.28
-46.53
-36.86
-23.57
-8.70
5.55
17.53
26.48
32.33
35.55
36.58
35.88
33.85
31.05
28.17
25.91
24.75
24.83
25.86
27.35
28.78
29.74
30.06
29.77
28.99
27.94
26.76
25.42
23.71
21.28
17.85
13.40
8.19
2.74
-2.40
-6.84
-10.43
-13.42
-16.30
-19.70
-24.12
-29.55
-35.40
-40.33
-42.78
-41.43
-35.79
-26.40
-14.68
-2.42
8.76
17.80
24.25
28.18
29.89
29.74
28.09
25.27
21.76
18.16
15.11
13.22
12.74
13.55
15.04
16.47
17.17
16.93
15.99
14.80
13.79
13.05
12.36
11.32
9.68
7.38
4.61
1.56
-1.74
-5.42
-9.78
-14.97
-20.89
-26.94
-32.22
-35.57
-35.89
-32.47
-25.25
-15.04
-3.29
8.25
18.05
25.22
29.59
31.51
31.50
29.99
27.21
23.43
19.13
15.00
11.79
10.00
9.70
10.55
12.06
13.65
14.97
15.73
15.80
15.05
13.46
11.07
8.05
4.64
1.10
-2.36
-5.64
-8.75
-11.80
-14.97
-18.50
-22.51
-26.90
-31.22
-34.68
-36.31
-35.24
-31.02
-23.81
-14.48
-4.35
5.13
12.79
18.01
20.81
21.69
21.30
20.24
18.90
17.60
16.57
15.95
15.85
16.14
16.59
16.90
16.92
16.65
16.29
15.98
15.72
15.30
14.37
12.70
10.26
7.30
4.19
1.25
-1.38
-3.80
-6.22
-8.85
-11.85
-15.31
-19.27
-23.77
-28.65
-33.37
-36.95
-38.19
-36.05
-30.20
-21.30
-10.88
-0.77
7.59
13.51
17.24
19.45
20.78
21.56
21.68
21.00
19.61
17.95
16.57
15.95
16.17
16.87
17.52
17.66
17.10
16.01
14.74
13.60
12.74
12.01
11.05
9.53
7.22
4.17
0.72
-2.70
-5.69
-8.07
-9.91
-11.49
-13.19
-15.36
-18.21
-21.78
-25.75
-29.42
-31.83
-31.94
-29.10
-23.30
-15.37
-6.64
1.44
7.87
12.30
15.02
16.56
17.41
17.84
17.81
17.25
16.17
14.80
13.52
12.70
12.58
13.10
13.93
14.58
14.64
13.94
12.67
11.21
9.98
9.12
8.41
7.33
5.44
2.57
-0.98
-4.54
-7.42
-9.27
-10.14
-10.50
-10.93
-11.87
-13.57
-16.04
-19.09
-22.39
-25.43
-27.49
-27.80
-25.77
-21.27
-14.87
-7.59
-0.65
4.93
8.66
10.52
10.83
10.05
8.58
6.83
5.18
4.05
3.71
4.23
5.46
6.97
8.38
9.41
9.97
10.13
9.99
9.60
8.94
7.94
6.44
4.32
1.58
-1.65
-5.04
-8.19
-10.73
-12.45
-13.35
-13.72
-13.94
-14.40
-15.35
-16.83
-18.57
-20.08
-20.74
-19.87
-17.18
-12.76
-7.22
-1.48
3.58
7.43
9.97
11.41
12.08
12.12
11.55
10.32
8.52
6.50
4.68
3.41
2.77
2.63
2.71
2.85
3.04
3.43
4.14
5.09
5.98
6.34
5.78
4.11
1.51
-1.58
-4.66
-7.29
-9.34
-10.92
-12.30
-13.79
-15.61
-17.76
-20.04
-22.01
-23.04
-22.44
-19.71
-14.77
-8.12
-0.77
6.07
11.30
14.29
14.98
13.79
11.38
8.46
5.62
3.32
1.81
1.19
1.38
2.10
3.03
3.86
4.39
4.57
4.43
3.99
3.23
2.16
0.78
-0.84
-2.52
-4.17
-5.73
-7.30
-8.91
-10.58
-12.18
-13.59
-14.82
-16.05
-17.65
-19.92
-22.90
-26.14
-28.79
-29.84
-28.51
-24.59
-18.54
-11.39
-4.33
1.57
5.78
8.26
9.36
9.57
9.27
8.70
7.96
7.20
6.63
6.47
6.83
7.56
8.33
8.66
8.24
7.05
5.48
4.12
3.48
3.65
4.30
4.77
4.43
2.95
0.49
-2.39
-5.07
-7.11
-8.49
-9.50
-10.56
-12.05
-14.14
-16.86
-20.18
-23.89
-27.63
-30.72
-32.27
-31.41
-27.69
-21.36
-13.40
-5.24
1.79
6.86
9.84
11.19
11.49
11.18
10.47
9.31
7.76
6.08
4.69
4.02
4.33
5.54
7.28
9.03
10.24
10.56
9.91
8.47
6.68
4.98
3.68
2.80
2.05
0.99
-0.73
-3.18
-6.08
-9.03
-11.70
-14.01
-16.09
-18.18
-20.50
-23.06
-25.86
-28.74
-31.53
-33.88
-35.23
-34.88
-32.21
-27.05
-19.82
-11.49
-3.25
3.90
9.42
13.25
15.62
16.81
17.01
16.34
14.95
13.11
11.12
9.37
8.14
7.54
7.54
7.98
8.63
9.23
9.58
9.58
9.29
8.78
8.13
7.35
6.28
4.77
2.65
-0.03
-3.08
-6.14
-8.90
-11.20
-13.06
-14.71
-16.49
-18.72
-21.61
-25.13
-28.87
-32.15
-33.98
-33.40
-29.83
-23.36
-14.84
-5.63
2.89
9.68
14.30
16.90
17.85
17.51
16.13
13.93
11.23
8.53
6.42
5.36
5.59
6.96
9.02
11.19
12.93
13.89
13.89
12.95
11.23
8.92
6.18
3.13
-0.03
-3.12
-5.94
-8.34
-10.34
-12.19
-14.36
-17.30
-21.19
-25.86
-30.75
-35.04
-37.85
-38.43
-36.23
-31.03
-23.06
-13.04
-2.08
8.49
17.47
23.99
27.76
28.89
27.82
25.15
21.53
17.63
14.03
11.23
9.43
8.56
8.38
8.64
9.18
9.89
10.65
11.24
11.40
10.80
9.27
6.75
3.38
-0.58
-4.80
-8.91
-12.62
-15.74
-18.28
-20.47
-22.75
-25.61
-29.40
-34.21
-39.58
-44.52
-47.63
-47.51
-43.19
-34.65
-22.92
-9.84
2.56
12.68
19.71
23.66
25.06
24.66
23.07
20.84
18.47
16.41
15.01
14.44
14.57
15.11
15.76
16.33
16.78
17.15
17.33
17.07
16.04
13.96
10.82
6.85
2.52
-1.67
-5.30
-8.19
-10.45
-12.41
-14.59
-17.60
-21.90
-27.55
-34.09
-40.45
-45.20
-46.93
-44.66
-38.19
-28.20
-16.09
-3.60
7.59
16.29
22.01
24.93
25.70
25.15
23.98
22.60
21.15
19.64
18.11
16.65
15.49
14.81
14.70
15.09
15.79
16.48
16.84
16.61
15.63
13.85
11.32
8.19
4.65
0.91
-2.87
-6.59
-10.34
-14.35
-18.98
-24.43
-30.56
-36.65
-41.45
-43.47
-41.48
-35.09
-24.84
-12.25
0.75
12.32
21.26
27.15
30.20
31.00
30.09
27.90
24.73
20.88
16.78
13.00
10.14
8.67
8.78
10.24
12.51
14.97
16.95
18.03
18.03
16.96
14.97
12.25
8.97
5.29
1.39
-2.59
-6.64
-10.87
-15.56
-20.91
-26.76
-32.46
-36.79
-38.32
-35.89
-29.07
-18.54
-5.86
6.92
17.96
26.11
31.04
33.12
33.09
31.63
29.16
25.95
22.21
18.34
14.94
12.71
12.19
13.46
16.04
19.03
21.43
22.44
21.75
19.50
16.11
12.06
7.73
3.32
-1.02
-5.19
-9.17
-13.12
-17.38
-22.30
-27.97
-33.93
-39.09
-41.96
-41.24
-36.26
-27.35
-15.75
-3.21
8.51
18.16
25.18
29.58
31.75
32.22
31.55
30.28
28.90
27.86
27.38
27.44
27.80
28.15
28.27
28.13
27.82
27.47
27.07
26.41
25.17
23.12
20.16
16.41
12.12
7.57
2.98
-1.49
-5.79
-9.92
-14.03
-18.38
-23.29
-28.94
-35.06
-40.86
-45.07
-46.29
-43.48
-36.38
-25.75
-13.14
-0.48
10.49
18.75
24.11
27.11
28.68
29.63
30.41
31.05
31.45
31.58
31.65
32.00
32.90
34.23
35.56
36.28
35.96
34.54
32.39
30.06
28.04
26.50
25.18
23.56
21.12
17.55
12.97
7.85
2.87
-1.37
-4.66
-7.17
-9.36
-11.72
-14.59
-18.06
-22.03
-26.26
-30.27
-33.34
-34.52
-32.97
-28.23
-20.66
-11.41
-2.05
5.93
11.77
15.53
17.84
19.51
20.99
22.32
23.22
23.49
23.18
22.69
22.46
22.81
23.64
24.58
25.19
25.19
24.68
23.93
23.30
22.93
22.70
22.33
21.51
20.07
18.07
15.69
13.19
10.75
8.48
6.31
4.06
1.46
-1.61
-5.09
-8.66
-11.83
-14.18
-15.48
-15.90
-16.02
-16.61
-18.41
-21.70
-26.16
-30.80
-34.31
-35.35
-33.19
-27.89
-20.32
-11.86
-3.88
2.63
7.24
10.07
11.50
11.88
11.50
10.61
9.47
8.49
8.07
8.52
9.83
11.73
13.68
15.24
16.13
16.30
15.87
15.06
14.03
12.91
11.78
10.68
9.61
8.44
6.97
4.99
2.39
-0.73
-4.06
-7.17
-9.60
-11.10
-11.73
-11.84
-11.93
-12.52
-13.98
-16.40
-19.56
-22.93
-25.72
-27.07
-26.32
-23.19
-18.02
-11.65
-5.12
0.64
5.07
8.06
9.72
10.21
9.68
8.23
6.11
3.71
1.59
0.22
-0.08
0.64
2.07
3.73
5.14
6.02
6.37
6.37
6.22
5.97
5.43
4.34
2.52
0.15
-2.31
-4.29
-5.43
-5.81
-5.81
-6.01
-6.77
-8.18
-10.09
-12.23
-14.32
-16.13
-17.34
-17.54
-16.41
-13.80
-9.92
-5.30
-0.62
3.49
6.64
8.67
9.62
9.61
8.85
7.57
6.03
4.45
3.05
1.90
1.07
0.58
0.46
0.74
1.36
2.20
2.96
3.30
2.95
1.83
0.04
-2.13
-4.32
-6.27
-7.76
-8.71
-9.11
-9.13
-9.07
-9.38
-10.45
-12.37
-14.89
-17.32
-18.85
-18.88
-17.26
-14.30
-10.61
-6.79
-3.22
-0.12
2.43
4.34
5.51
5.97
5.79
5.24
4.59
4.07
3.76
3.69
3.76
3.86
3.93
3.89
3.79
3.68
3.72
4.01
4.49
4.90
4.85
3.96
2.13
-0.42
-3.22
-5.74
-7.65
-8.91
-9.66
-10.14
-10.51
-10.87
-11.39
-12.39
-14.20
-16.85
-19.94
-22.56
-23.60
-22.36
-18.84
-13.82
-8.58
-4.30
-1.56
-0.32
-0.01
-0.01
0.17
0.63
1.30
2.05
2.78
3.53
4.35
5.27
6.27
7.17
7.80
7.96
7.61
6.79
5.65
4.34
3.02
1.73
0.49
-0.65
-1.68
-2.64
-3.61
-4.85
-6.55
-8.71
-11.11
-13.26
-14.65
-15.08
-14.74
-14.25
-14.28
-15.23
-16.90
-18.55
-19.22
-18.22
-15.53
-11.73
-7.76
-4.35
-1.85
-0.11
1.14
2.07
2.67
2.78
2.38
1.62
0.79
0.20
-0.03
0.07
0.43
0.95
1.63
2.46
3.34
4.11
4.57
4.59
4.16
3.31
2.15
0.77
-0.67
-2.03
-3.18
-4.05
-4.68
-5.13
-5.54
-5.98
-6.51
-7.18
-8.09
-9.29
-10.75
-12.31
-13.67
-14.44
-14.32
-13.14
-10.99
-8.19
-5.14
-2.25
0.12
1.73
2.47
2.34
1.48
0.19
-1.16
-2.21
-2.71
-2.60
-2.02
-1.20
-0.42
0.24
0.77
1.32
1.98
2.68
3.21
3.27
2.66
1.40
-0.25
-1.99
-3.64
-5.14
-6.55
-7.88
-9.03
-9.80
-10.05
-9.86
-9.50
-9.21
-9.01
-8.60
-7.53
-5.52
-2.67
0.54
3.50
5.72
7.09
7.78
8.03
8.00
7.64
6.82
5.51
3.87
2.14
0.64
-0.48
-1.24
-1.73
-2.06
-2.17
-1.96
-1.39
-0.58
0.19
0.51
0.15
-0.92
-2.51
-4.33
-6.14
-7.95
-9.90
-12.05
-14.30
-16.33
-17.68
-18.00
-17.10
-15.06
-12.09
-8.50
-4.56
-0.57
3.09
6.04
7.89
8.49
7.96
6.72
5.36
4.28
3.68
3.43
3.24
2.92
2.47
2.07
1.93
2.02
2.08
1.67
0.55
-1.15
-2.97
-4.36
-4.99
-4.97
-4.75
-4.87
-5.72
-7.32
-9.48
-11.87
-14.17
-16.05
-17.12
-16.89
-14.99
-11.40
-6.60
-1.48
3.01
6.20
7.95
8.59
8.58
8.30
7.89
7.31
6.53
5.55
4.49
3.48
2.53
1.58
0.59
-0.40
-1.28
-1.89
-2.15
-2.07
-1.76
-1.41
-1.23
-1.44
-2.14
-3.26
-4.62
-5.97
-7.18
-8.34
-9.75
-11.70
-14.26
-17.09
-19.53
-20.75
-20.20
-17.79
-13.86
-9.08
-4.15
0.40
4.30
7.43
9.80
11.42
12.27
12.44
11.98
11.04
9.76
8.29
6.76
5.37
4.35
3.86
3.95
4.46
5.13
5.55
5.49
4.88
3.90
2.73
1.46
0.08
-1.56
-3.49
-5.58
-7.53
-9.03
-9.93
-10.41
-10.94
-12.07
-14.20
-17.25
-20.53
-22.98
-23.47
-21.31
-16.60
-10.20
-3.45
2.40
6.62
9.14
10.43
11.02
11.26
11.21
10.76
9.90
8.85
7.99
7.63
7.87
8.51
9.15
9.44
9.22
8.55
7.67
6.82
6.13
5.63
5.23
4.81
4.26
3.51
2.52
1.32
-0.04
-1.47
-2.90
-4.41
-6.19
-8.49
-11.50
-15.13
-18.88
-21.88
-23.10
-21.81
-17.90
-12.01
-5.29
0.97
5.84
8.96
10.51
10.98
10.85
10.40
9.78
9.10
8.49
8.11
8.06
8.26
8.56
8.82
8.95
8.99
9.00
8.97
8.77
8.19
7.06
5.37
3.34
1.29
-0.52
-1.93
-2.94
-3.70
-4.44
-5.42
-6.91
-9.08
-11.88
-14.91
-17.43
-18.54
-17.56
-14.31
-9.18
-3.04
3.13
8.53
12.71
15.48
16.84
16.89
15.88
14.17
12.24
10.61
9.62
9.40
9.84
10.77
11.94
13.20
14.33
15.10
15.26
14.66
13.27
11.25
8.94
6.72
4.92
3.65
2.79
2.02
0.94
-0.74
-3.09
-5.95
-8.93
-11.58
-13.51
-14.47
-14.49
-13.82
-12.89
-12.24
-12.39
-13.72
-16.25
-19.63
-23.16
-25.95
-27.19
-26.30
-23.14
-17.99
-11.45
-4.31
2.65
8.71
13.34
16.24
17.39
17.05
15.75
14.09
12.60
11.59
11.14
11.15
11.47
11.95
12.44
12.84
12.98
12.78
12.22
11.37
10.34
9.22
7.98
6.60
4.99
3.15
1.09
-1.10
-3.37
-5.68
-8.00
-10.38
-12.95
-15.87
-19.23
-22.79
-25.92
-27.62
-26.96
-23.44
-17.35
-9.74
-2.00
4.63
9.52
12.63
14.28
14.82
14.51
13.57
12.36
11.44
11.23
11.88
13.10
14.31
14.99
15.05
14.78
14.62
14.86
15.34
15.69
15.53
14.79
13.67
12.44
11.17
9.61
7.40
4.31
0.55
-3.27
-6.41
-8.39
-9.24
-9.52
-10.02
-11.37
-13.82
-17.17
-20.90
-24.38
-26.94
-27.96
-26.95
-23.66
-18.25
-11.37
-4.00
2.73
8.03
11.62
13.72
14.88
15.60
16.17
16.55
16.62
16.26
15.55
14.78
14.28
14.25
14.70
15.45
16.26
16.95
17.44
17.76
17.93
17.93
17.64
16.85
15.37
13.10
10.14
6.68
3.04
-0.44
-3.45
-5.75
-7.23
-7.99
-8.38
-8.89
-10.05
-12.30
-15.79
-20.27
-25.13
-29.44
-32.16
-32.39
-29.62
-23.96
-16.16
-7.43
0.86
7.62
12.26
14.78
15.56
15.14
13.98
12.43
10.77
9.28
8.21
7.72
7.88
8.58
9.68
10.97
12.33
13.61
14.65
15.23
15.21
14.48
13.04
11.00
8.62
6.13
3.79
1.70
-0.17
-1.97
-3.93
-6.23
-8.93
-12.01
-15.39
-18.96
-22.51
-25.62
-27.61
-27.67
-25.25
-20.23
-13.19
-5.25
2.40
8.73
13.28
16.13
17.64
18.19
18.08
17.37
16.12
14.47
12.69
11.12
10.08
9.66
9.81
10.32
10.97
11.59
12.04
12.06
11.32
9.56
6.73
3.20
-0.39
-3.39
-5.47
-6.75
-7.78
-9.12
-11.15
-13.86
-16.95
-20.01
-22.60
-24.23
-24.36
-22.46
-18.24
-12.02
-4.76
2.24
7.76
11.24
12.91
13.50
13.70
13.87
13.86
13.34
12.15
10.52
8.94
7.88
7.50
7.67
8.09
8.54
8.88
9.04
8.87
8.09
6.52
4.16
1.35
-1.43
-3.77
-5.59
-7.22
-9.14
-11.80
-15.34
-19.56
-24.10
-28.45
-31.99
-34.11
-34.12
-31.53
-26.29
-18.89
-10.34
-1.89
5.41
10.92
14.55
16.53
17.26
17.14
16.58
15.93
15.44
15.22
15.15
15.01
14.60
13.93
13.16
12.57
12.33
12.38
12.46
12.26
11.49
10.04
7.88
5.13
1.98
-1.26
-4.36
-7.12
-9.52
-11.78
-14.21
-17.12
-20.66
-24.72
-28.76
-31.98
-33.43
-32.31
-28.27
-21.57
-13.13
-4.24
3.85
10.29
14.77
17.51
18.99
19.62
19.66
19.20
18.30
17.12
15.96
15.09
14.74
14.91
15.38
15.85
16.08
15.94
15.49
14.86
14.09
13.17
11.93
10.16
7.80
4.94
1.78
-1.36
-4.22
-6.63
-8.61
-10.24
-11.78
-13.55
-15.86
-18.95
-22.78
-26.88
-30.35
-32.03
-30.94
-26.62
-19.36
-10.26
-0.80
7.55
13.80
17.64
19.37
19.60
18.97
17.97
16.88
15.91
15.18
14.76
14.66
14.77
14.86
14.78
14.43
13.91
13.39
13.04
12.83
12.51
11.73
10.21
7.91
5.11
2.26
-0.17
-2.01
-3.36
-4.57
-6.04
-8.05
-10.68
-13.84
-17.37
-20.95
-24.10
-26.08
-26.05
-23.33
-17.80
-10.08
-1.47
6.51
12.57
16.16
17.43
17.06
15.74
13.88
11.55
8.72
5.56
2.56
0.44
-0.24
0.63
2.60
4.88
6.72
7.73
8.00
7.83
7.51
7.08
6.26
4.72
2.28
-0.92
-4.40
-7.63
-10.28
-12.39
-14.33
-16.62
-19.52
-22.85
-25.89
-27.57
-26.92
-23.38
-17.17
-9.20
-0.81
6.69
12.47
16.25
18.23
18.83
18.42
17.25
15.48
13.30
11.10
9.38
8.58
8.91
10.17
11.82
13.19
13.73
13.20
11.70
9.55
7.10
4.52
1.89
-0.79
-3.49
-6.09
-8.52
-10.86
-13.34
-16.35
-20.08
-24.40
-28.80
-32.41
-34.28
-33.64
-30.15
-24.04
-16.06
-7.30
1.05
7.96
12.80
15.47
16.30
15.91
14.94
13.88
12.93
12.06
11.08
9.87
8.51
7.30
6.58
6.62
7.31
8.30
9.03
9.04
8.14
6.46
4.30
1.92
-0.54
-3.08
-5.71
-8.40
-11.08
-13.73
-16.45
-19.51
-23.14
-27.34
-31.67
-35.26
-37.01
-35.99
-31.79
-24.71
-15.74
-6.22
2.50
9.48
14.26
16.88
17.67
17.15
15.83
14.27
12.94
12.18
12.09
12.53
13.21
13.79
14.05
13.91
13.47
12.88
12.32
11.86
11.45
10.88
9.81
7.92
5.10
1.48
-2.51
-6.34
-9.61
-12.21
-14.40
-16.65
-19.47
-23.15
-27.57
-32.17
-35.92
-37.65
-36.41
-31.80
-24.23
-14.81
-4.98
3.90
10.94
15.80
18.63
19.79
19.76
18.98
17.82
16.59
15.49
14.65
14.09
13.80
13.78
14.02
14.44
14.88
15.13
15.05
14.57
13.76
12.68
11.25
9.34
6.81
3.67
0.19
-3.20
-6.10
-8.37
-10.16
-11.87
-13.90
-16.59
-20.06
-24.21
-28.71
-32.90
-35.87
-36.55
-34.11
-28.36
-19.91
-10.06
-0.39
7.73
13.58
17.05
18.54
18.57
17.54
15.76
13.47
11.02
8.88
7.52
7.24
8.06
9.62
11.41
12.91
13.77
13.85
13.23
12.01
10.28
8.07
5.41
2.46
-0.52
-3.25
-5.60
-7.64
-9.72
-12.29
-15.68
-19.98
-24.91
-29.83
-33.80
-35.82
-35.02
-30.92
-23.64
-13.98
-3.29
6.85
15.01
20.36
22.74
22.61
20.77
17.98
14.78
11.49
8.35
5.60
3.59
2.63
2.82
3.95
5.50
6.83
7.46
7.14
5.91
3.99
1.73
-0.65
-2.99
-5.31
-7.75
-10.50
-13.72
-17.50
-21.82
-26.48
-31.09
-34.99
-37.32
-37.11
-33.67
-26.87
-17.38
-6.57
3.87
12.46
18.45
21.86
23.33
23.55
22.97
21.68
19.58
16.71
13.47
10.57
8.79
8.62
9.96
12.18
14.34
15.58
15.45
13.97
11.61
8.92
6.23
3.49
0.41
-3.33
-7.90
-13.24
-19.13
-25.23
-31.14
-36.33
-39.98
-41.10
-38.78
-32.65
-23.09
-11.42
0.51
10.85
18.39
22.78
24.49
24.44
23.53
22.34
21.07
19.67
18.11
16.49
15.06
14.10
13.75
13.85
14.03
13.85
12.91
11.01
8.28
5.00
1.57
-1.70
-4.69
-7.54
-10.51
-13.94
-18.10
-23.13
-28.92
-35.06
-40.78
-44.95
-46.28
-43.69
-36.69
-25.80
-12.49
1.18
13.16
22.10
27.57
30.14
30.84
30.79
30.74
31.01
31.52
32.06
32.40
32.36
31.81
30.57
28.59
25.96
22.98
20.10
17.73
16.01
14.71
13.34
11.28
8.20
4.15
-0.48
-5.09
-9.25
-12.75
-15.75
-18.62
-21.85
-25.86
-30.80
-36.34
-41.60
-45.25
-45.84
-42.35
-34.58
-23.42
-10.57
2.01
12.71
20.70
26.00
29.25
31.19
32.42
33.19
33.56
33.52
33.14
32.56
31.91
31.27
30.61
29.96
29.38
29.04
29.07
29.41
29.82
29.91
29.33
27.82
25.35
22.03
18.10
13.85
9.56
5.51
1.87
-1.32
-4.20
-6.95
-9.72
-12.54
-15.25
-17.76
-20.04
-22.27
-24.80
-28.06
-32.30
-37.23
-42.00
-45.21
-45.34
-41.31
-33.02
-21.48
-8.53
3.78
13.78
20.66
24.49
25.95
25.94
25.17
24.08
22.80
21.37
19.87
18.43
17.32
16.75
16.84
17.49
18.44
19.37
20.07
20.46
20.65
20.86
21.18
21.51
21.53
20.87
19.19
16.48
13.00
9.25
5.73
2.73
0.25
-1.89
-3.98
-6.20
-8.67
-11.50
-14.87
-18.95
-23.79
-29.09
-34.09
-37.81
-39.19
-37.63
-33.06
-26.05
-17.54
-8.62
-0.23
6.89
12.15
15.14
15.68
13.94
10.50
6.34
2.51
-0.14
-1.23
-0.86
0.47
2.16
3.76
5.11
6.32
7.62
9.22
11.13
13.19
15.05
16.43
17.14
17.27
17.04
16.63
16.12
15.34
14.02
11.92
8.95
5.13
0.60
-4.50
-9.97
-15.42
-20.18
-23.34
-24.03
-21.76
-16.69
-9.65
-1.82
5.67
12.03
16.99
20.56
22.99
24.52
25.41
25.96
26.49
27.31
28.44
29.67
30.57
30.64
29.55
27.31
24.22
20.78
17.48
14.57
11.86
8.86
4.91
-0.47
-7.27
-14.94
-22.65
-29.63
-35.52
-40.51
-45.20
-50.19
-55.88
-62.31
-69.20
-76.12
-82.60
-88.09
-91.98
-93.61
-92.47
-88.31
-81.28
-71.83
-60.44
-47.52
-33.21
-17.50
-0.43
17.65
36.07
53.91
70.25
84.43
96.06
105.03
111.28
114.76
115.49
113.65
109.71
104.30
98.03
91.23
83.86
75.67
66.37
55.94
44.62
32.93
21.43
10.50
0.31
-9.25
-18.48
-27.72
-37.13
-46.56
-55.44
-62.90
-67.90
-69.64
-67.83
-62.89
-55.94
-48.40
-41.65
-36.57
-33.37
-31.60
-30.34
-28.72
-26.09
-22.28
-17.46
-11.99
-6.17
-0.16
6.00
12.36
18.78
24.95
30.30
34.15
35.92
35.37
32.75
28.77
24.42
20.60
17.79
15.92
14.41
12.37
8.93
3.46
-4.28
-14.11
-25.41
-37.16
-48.15
-57.30
-64.06
-68.66
-72.03
-75.39
-79.48
-84.08
-87.94
-89.22
-86.38
-78.88
-67.35
-53.30
-38.40
-23.90
-10.42
1.93
13.22
23.35
32.11
39.45
45.57
51.02
56.43
62.25
68.53
74.82
80.31
84.01
85.02
82.77
77.23
68.98
58.97
48.39
38.25
29.24
21.67
15.58
10.85
7.32
4.83
3.08
1.71
0.35
-1.25
-3.17
-5.37
-7.90
-10.95
-14.87
-19.90
-25.95
-32.47
-38.52
-43.08
-45.40
-45.28
-43.00
-39.14
-34.32
-29.08
-23.82
-18.93
-14.85
-11.97
-10.52
-10.43
-11.27
-12.40
-13.32
-13.82
-14.12
-14.60
-15.55
-16.88
-18.10
-18.46
-17.31
-14.43
-10.21
-5.47
-1.20
1.90
3.59
4.17
4.05
3.65
3.02
1.97
0.29
-1.95
-4.24
-5.79
-5.86
-4.21
-1.27
1.91
4.23
4.90
3.81
1.48
-1.19
-3.42
-4.82
-5.47
-5.80
-6.37
-7.58
-9.75
-12.78
-16.34
-19.74
-22.16
-22.81
-21.25
-17.64
-12.59
-7.08
-2.02
1.94
4.57
5.97
6.44
6.29
5.71
4.97
4.28
3.93
4.06
4.70
5.64
6.64
7.44
7.91
8.08
7.97
7.68
7.22
6.66
6.09
5.65
5.37
5.02
4.19
2.35
-0.74
-4.82
-9.22
-13.00
-15.39
-15.94
-14.72
-12.09
-8.66
-4.96
-1.45
1.56
3.91
5.59
6.64
7.14
7.11
6.47
5.17
3.41
1.50
-0.13
-1.22
-1.77
-2.03
-2.32
-2.80
-3.38
-3.73
-3.66
-3.13
-2.35
-1.66
-1.32
-1.41
-1.96
-2.89
-4.20
-5.91
-8.03
-10.54
-13.29
-15.94
-17.92
-18.50
-16.94
-12.93
-6.86
0.24
6.87
11.72
14.16
14.43
13.37
11.85
10.32
8.70
6.63
3.94
0.88
-1.88
-3.62
-3.98
-3.06
-1.42
0.28
1.60
2.37
2.67
2.59
2.11
1.11
-0.55
-2.87
-5.65
-8.58
-11.35
-13.85
-16.15
-18.35
-20.36
-21.76
-21.89
-20.10
-16.17
-10.52
-4.09
2.05
7.03
10.48
12.48
13.31
13.11
11.96
9.85
6.96
3.71
0.70
-1.52
-2.64
-2.69
-1.97
-0.94
-0.04
0.37
0.11
-0.80
-2.18
-3.72
-5.03
-5.89
-6.25
-6.37
-6.69
-7.75
-9.88
-12.99
-16.47
-19.33
-20.56
-19.46
-15.99
-10.74
-4.72
1.05
5.85
9.30
11.41
12.34
12.29
11.45
10.00
8.18
6.30
4.61
3.34
2.61
2.37
2.44
2.54
2.41
1.87
0.85
-0.56
-2.24
-3.99
-5.63
-7.03
-8.13
-8.95
-9.73
-10.85
-12.70
-15.39
-18.56
-21.39
-22.80
-21.87
-18.27
-12.42
-5.39
1.45
7.02
10.74
12.67
13.36
13.37
13.04
12.31
10.94
8.83
6.22
3.76
2.18
1.91
2.84
4.31
5.43
5.48
4.30
2.22
-0.13
-2.19
-3.80
-5.13
-6.53
-8.25
-10.30
-12.49
-14.62
-16.60
-18.43
-20.08
-21.26
-21.37
-19.78
-16.18
-10.73
-4.15
2.65
8.90
14.12
18.13
20.82
22.06
21.64
19.59
16.27
12.44
8.98
6.51
5.21
4.83
4.92
5.12
5.24
5.30
5.24
5.01
4.46
3.51
2.15
0.39
-1.67
-4.05
-6.73
-9.59
-12.47
-15.17
-17.55
-19.66
-21.61
-23.36
-24.60
-24.74
-23.08
-19.21
-13.23
-5.86
1.82
8.62
13.70
16.71
17.85
17.68
16.81
15.68
14.35
12.74
10.77
8.63
6.69
5.39
4.91
5.03
5.33
5.38
5.00
4.37
3.69
3.11
2.51
1.68
0.45
-1.11
-2.80
-4.50
-6.21
-8.10
-10.39
-13.18
-16.41
-19.89
-23.22
-25.84
-27.03
-26.12
-22.78
-17.17
-10.08
-2.59
4.20
9.59
13.36
15.68
16.89
17.24
16.90
15.93
14.43
12.61
10.72
8.99
7.59
6.58
5.90
5.50
5.40
5.61
6.17
7.00
7.82
8.25
7.85
6.37
3.86
0.66
-2.67
-5.68
-8.05
-9.84
-11.35
-13.15
-15.72
-19.27
-23.54
-27.66
-30.42
-30.57
-27.33
-20.76
-11.83
-2.10
6.82
13.79
18.43
21.01
22.07
22.06
21.21
19.49
17.05
14.26
11.64
9.74
8.82
8.81
9.35
10.06
10.67
10.99
10.92
10.30
8.98
6.92
4.15
0.91
-2.50
-5.83
-8.94
-11.79
-14.48
-17.19
-20.13
-23.43
-26.86
-29.77
-31.20
-30.19
-26.24
-19.66
-11.44
-2.91
4.73
10.83
15.23
18.10
19.64
19.90
18.82
16.41
12.88
8.68
4.42
0.71
-2.01
-3.51
-3.84
-3.34
-2.52
-1.94
-1.92
-2.51
-3.39
-4.17
-4.70
-5.18
-6.17
-8.28
-11.93
-17.09
-23.30
-29.81
-35.79
-40.40
-42.85
-42.42
-38.68
-31.69
-22.20
-11.52
-1.23
7.30
13.29
16.64
17.82
17.47
16.03
13.69
10.40
6.23
1.60
-2.68
-5.64
-6.61
-5.60
-3.34
-1.04
0.17
-0.28
-2.26
-5.14
-8.25
-11.18
-13.98
-16.99
-20.60
-25.13
-30.71
-37.22
-44.21
-50.78
-55.66
-57.41
-54.94
-47.90
-36.95
-23.62
-9.88
2.41
11.99
18.33
21.60
22.30
21.06
18.50
15.16
11.58
8.32
5.92
4.76
4.88
5.91
7.11
7.60
6.70
4.15
0.28
-4.15
-8.35
-11.81
-14.52
-17.00
-19.99
-24.19
-30.02
-37.55
-46.31
-55.32
-63.02
-67.64
-67.54
-61.84
-50.85
-36.04
-19.72
-4.24
8.59
17.98
24.10
27.73
29.78
30.85
31.19
30.79
29.65
27.93
26.07
24.61
23.94
24.15
24.88
25.49
25.33
23.92
21.17
17.38
13.12
8.94
5.21
1.82
-1.65
-5.86
-11.39
-18.57
-27.34
-37.25
-47.39
-56.40
-62.54
-64.05
-59.62
-48.98
-33.13
-14.27
4.88
21.78
34.81
43.48
48.27
50.21
50.41
49.82
49.09
48.61
48.59
48.99
49.61
50.14
50.25
49.74
48.62
47.10
45.49
44.01
42.68
41.22
39.12
35.85
31.10
24.90
17.66
10.03
2.72
-3.83
-9.58
-14.90
-20.50
-27.08
-35.04
-44.08
-53.06
-60.05
-62.80
-59.47
-49.41
-33.54
-14.25
5.44
22.76
36.08
45.09
50.55
53.66
55.50
56.65
57.33
57.54
57.34
56.97
56.74
56.92
57.59
58.65
59.85
60.94
61.71
62.01
61.67
60.51
58.29
54.85
50.22
44.65
38.63
32.66
27.09
22.12
17.69
13.62
9.70
5.79
1.85
-2.07
-5.87
-9.50
-13.14
-17.16
-22.13
-28.63
-36.76
-45.81
-54.12
-59.36
-59.26
-52.59
-39.70
-22.62
-4.39
12.01
24.66
33.09
38.02
40.68
42.06
42.59
42.20
40.77
38.49
35.92
33.88
33.08
33.87
35.94
38.60
40.93
42.21
42.12
40.78
38.64
36.20
33.76
31.35
28.88
26.12
22.98
19.43
15.61
11.76
8.17
5.06
2.53
0.39
-1.69
-4.16
-7.42
-11.64
-16.82
-22.78
-29.16
-35.26
-39.99
-42.03
-40.16
-33.88
-23.65
-11.01
1.94
13.16
21.38
26.29
28.39
28.55
27.49
25.65
23.22
20.47
17.86
16.04
15.48
16.36
18.22
20.25
21.62
21.80
20.83
19.15
17.24
15.35
13.39
11.08
8.12
4.45
0.25
-4.13
-8.28
-11.92
-14.90
-17.19
-18.94
-20.48
-22.29
-24.90
-28.54
-32.86
-36.88
-39.20
-38.52
-34.22
-26.67
-17.07
-7.06
1.88
8.94
13.90
17.07
18.86
19.62
19.55
18.84
17.70
16.40
15.26
14.56
14.48
14.98
15.91
16.94
17.75
18.01
17.60
16.58
15.14
13.50
11.72
9.70
7.14
3.86
-0.12
-4.40
-8.32
-11.33
-13.13
-14.01
-14.67
-16.01
-18.74
-23.04
-28.39
-33.70
-37.58
-38.75
-36.54
-31.12
-23.45
-14.98
-7.03
-0.52
4.29
7.68
10.09
11.88
13.14
13.81
13.85
13.38
12.71
12.23
12.27
12.92
13.99
15.10
15.78
15.62
14.52
12.72
10.72
9.09
8.21
8.02
8.16
7.94
6.74
4.23
0.53
-3.85
-8.18
-11.79
-14.27
-15.62
-16.24
-16.71
-17.63
-19.52
-22.58
-26.63
-31.13
-35.15
-37.59
-37.51
-34.42
-28.53
-20.71
-12.23
-4.35
1.99
6.39
8.94
10.00
10.05
9.55
8.89
8.43
8.42
8.98
9.93
10.94
11.55
11.48
10.75
9.66
8.73
8.34
8.62
9.29
9.88
9.92
9.12
7.50
5.28
2.87
0.64
-1.16
-2.47
-3.37
-4.09
-4.86
-5.85
-7.12
-8.62
-10.22
-11.82
-13.37
-14.97
-16.81
-19.15
-22.08
-25.50
-28.91
-31.55
-32.54
-31.24
-27.52
-21.88
-15.23
-8.57
-2.77
1.75
4.87
6.69
7.37
7.11
6.16
4.85
3.59
2.78
2.67
3.17
3.98
4.65
4.90
4.72
4.36
4.12
4.19
4.52
4.87
4.93
4.56
3.76
2.67
1.42
0.11
-1.29
-2.83
-4.48
-6.11
-7.49
-8.45
-8.93
-9.06
-9.13
-9.50
-10.49
-12.32
-15.03
-18.38
-21.88
-24.80
-26.32
-25.81
-22.99
-18.19
-12.17
-5.99
-0.60
3.38
5.82
6.95
7.19
6.82
6.02
4.90
3.56
2.26
1.36
1.17
1.83
3.17
4.73
6.01
6.69
6.76
6.51
6.29
6.21
6.11
5.53
4.02
1.45
-1.96
-5.58
-8.69
-10.81
-11.97
-12.57
-13.27
-14.53
-16.52
-18.96
-21.38
-23.33
-24.40
-24.35
-22.97
-20.16
-15.99
-10.87
-5.46
-0.57
3.07
5.13
5.69
5.16
4.06
2.81
1.70
0.85
0.29
0.01
-0.08
-0.07
-0.07
-0.13
-0.25
-0.35
-0.38
-0.38
-0.42
-0.64
-1.21
-2.19
-3.51
-5.03
-6.55
-7.97
-9.28
-10.62
-12.15
-14.03
-16.31
-18.95
-21.70
-24.14
-25.72
-25.86
-24.10
-20.34
-14.83
-8.33
-1.84
3.61
7.29
9.03
9.18
8.42
7.41
6.50
5.70
4.76
3.55
2.24
1.23
0.99
1.69
2.99
4.26
4.77
4.17
2.52
0.22
-2.24
-4.51
-6.52
-8.33
-10.00
-11.65
-13.37
-15.40
-18.07
-21.55
-25.64
-29.67
-32.64
-33.48
-31.53
-26.79
-19.91
-12.07
-4.54
1.73
6.19
8.80
9.88
9.90
9.32
8.46
7.50
6.49
5.47
4.45
3.54
2.88
2.53
2.52
2.75
2.95
2.78
1.95
0.28
-2.12
-4.90
-7.59
-9.86
-11.61
-13.08
-14.74
-17.05
-20.34
-24.51
-29.03
-33.10
-35.66
-35.79
-32.91
-27.01
-18.75
-9.40
-0.45
6.83
11.77
14.48
15.62
15.94
15.94
15.71
15.02
13.69
11.79
9.68
7.93
6.90
6.71
7.09
7.54
7.56
6.76
5.04
2.62
-0.12
-2.76
-5.05
-6.96
-8.70
-10.56
-12.79
-15.63
-19.22
-23.68
-28.90
-34.37
-39.08
-41.66
-40.83
-36.03
-27.73
-17.36
-6.87
2.05
8.50
12.40
14.30
14.92
14.83
14.35
13.70
13.01
12.45
12.12
12.04
12.16
12.38
12.67
13.00
13.35
13.54
13.35
12.48
10.63
7.72
3.82
-0.76
-5.53
-9.94
-13.59
-16.32
-18.42
-20.57
-23.51
-27.74
-33.09
-38.59
-42.73
-43.95
-41.20
-34.40
-24.46
-12.98
-1.74
7.80
14.88
19.40
21.78
22.72
22.92
22.91
23.05
23.52
24.37
25.58
27.03
28.49
29.70
30.41
30.59
30.38
30.13
30.12
30.36
30.54
30.09
28.48
25.51
21.46
16.98
12.79
9.35
6.62
4.21
1.61
-1.52
-5.18
-9.12
-12.99
-16.59
-19.92
-23.14
-26.60
-30.60
-35.41
-41.04
-47.07
-52.59
-56.32
-56.91
-53.45
-45.83
-34.85
-22.00
-8.99
2.71
12.21
19.15
23.68
26.22
27.33
27.57
27.44
27.37
27.61
28.28
29.39
30.76
32.20
33.43
34.22
34.49
34.31
33.86
33.34
32.91
32.47
31.75
30.35
27.97
24.54
20.27
15.61
10.98
6.71
2.89
-0.59
-3.87
-7.05
-10.14
-13.22
-16.33
-19.58
-23.10
-26.98
-31.33
-36.26
-41.78
-47.56
-52.78
-56.11
-56.13
-51.81
-43.09
-31.05
-17.52
-4.54
6.46
14.82
20.74
24.84
27.78
30.05
31.91
33.46
34.75
35.85
36.68
37.18
37.21
36.76
35.97
35.13
34.56
34.43
34.68
34.98
34.88
34.02
32.23
29.63
26.45
22.97
19.42
15.99
12.80
10.01
7.67
5.70
3.76
1.42
-1.69
-5.60
-9.97
-14.26
-17.93
-20.84
-23.27
-25.93
-29.61
-34.71
-41.01
-47.52
-52.68
-54.86
-52.88
-46.50
-36.51
-24.44
-12.04
-0.73
8.63
15.77
20.79
23.90
25.50
26.13
26.45
27.07
28.23
29.76
31.18
32.08
32.34
32.21
32.14
32.35
32.78
33.07
32.93
32.27
31.15
29.71
27.97
25.83
23.24
20.36
17.46
14.89
12.74
10.81
8.68
5.99
2.63
-1.13
-4.83
-8.08
-10.71
-12.84
-14.82
-16.98
-19.62
-22.98
-27.14
-32.04
-37.24
-41.93
-44.88
-44.84
-41.05
-33.60
-23.49
-12.37
-1.94
6.56
12.64
16.57
18.94
20.40
21.40
22.16
22.69
22.94
22.89
22.64
22.35
22.22
22.40
22.90
23.64
24.42
25.05
25.34
25.24
24.72
23.84
22.66
21.21
19.49
17.45
15.06
12.28
9.13
5.67
2.09
-1.42
-4.57
-7.16
-9.07
-10.41
-11.47
-12.66
-14.39
-16.89
-20.14
-23.90
-27.78
-31.36
-34.18
-35.72
-35.41
-32.82
-27.84
-20.81
-12.56
-4.19
3.20
8.86
12.53
14.45
15.09
15.03
14.66
14.17
13.53
12.66
11.65
10.74
10.33
10.71
11.86
13.40
14.80
15.68
15.93
15.79
15.47
15.02
14.18
12.67
10.36
7.47
4.40
1.59
-0.81
-2.89
-4.82
-6.69
-8.46
-10.00
-11.25
-12.32
-13.46
-15.00
-17.26
-20.37
-24.17
-28.08
-31.18
-32.37
-30.84
-26.37
-19.55
-11.64
-4.03
2.24
6.75
9.70
11.59
12.80
13.40
13.21
12.07
10.16
8.02
6.36
5.77
6.38
7.84
9.53
10.87
11.63
11.83
11.68
11.31
10.69
9.66
8.14
6.16
3.93
1.59
-0.78
-3.15
-5.55
-7.89
-10.02
-11.81
-13.24
-14.42
-15.61
-17.08
-18.97
-21.12
-23.14
-24.44
-24.46
-22.80
-19.42
-14.62
-9.03
-3.40
1.64
5.74
8.85
11.10
12.62
13.39
13.31
12.26
10.31
7.81
5.29
3.31
2.15
1.80
1.96
2.27
2.52
2.62
2.64
2.53
2.16
1.25
-0.39
-2.74
-5.47
-8.09
-10.15
-11.45
-12.22
-12.99
-14.35
-16.63
-19.66
-22.81
-25.11
-25.68
-23.99
-20.13
-14.71
-8.61
-2.74
2.27
6.13
8.91
10.71
11.70
11.90
11.25
9.70
7.33
4.34
1.14
-1.77
-3.96
-5.13
-5.25
-4.60
-3.60
-2.68
-2.13
-2.03
-2.28
-2.75
-3.34
-4.07
-5.04
-6.34
-8.07
-10.33
-13.18
-16.61
-20.41
-24.08
-26.89
-28.02
-26.83
-23.22
-17.67
-11.15
-4.81
0.39
4.02
6.09
6.98
7.13
6.85
6.18
5.04
3.39
1.36
-0.63
-2.11
-2.67
-2.27
-1.20
0.00
0.81
0.89
0.20
-1.09
-2.73
-4.55
-6.49
-8.55
-10.71
-13.05
-15.68
-18.76
-22.45
-26.71
-31.05
-34.56
-36.17
-34.92
-30.42
-23.09
-14.07
-4.92
2.84
8.23
11.02
11.64
10.96
9.79
8.61
7.47
6.20
4.68
3.11
1.91
1.49
1.97
3.02
4.04
4.42
3.84
2.33
0.20
-2.25
-4.84
-7.57
-10.56
-13.83
-17.33
-20.89
-24.42
-27.91
-31.36
-34.59
-37.06
-37.99
-36.58
-32.37
-25.49
-16.73
-7.32
1.45
8.54
13.48
16.29
17.43
17.52
17.11
16.58
16.06
15.56
15.01
14.44
13.89
13.44
13.03
12.52
11.75
10.57
8.96
6.95
4.67
2.25
-0.13
-2.37
-4.45
-6.54
-8.99
-12.14
-16.22
-21.28
-27.12
-33.42
-39.74
-45.37
-49.35
-50.56
-48.08
-41.62
-31.88
-20.39
-9.01
0.68
7.89
12.72
15.83
18.03
19.99
22.06
24.37
26.81
29.20
31.35
33.06
34.26
34.95
35.20
35.10
34.67
33.91
32.88
31.68
30.43
29.19
27.89
26.32
24.22
21.37
17.68
13.20
8.17
2.94
-2.11
-6.67
-10.64
-14.13
-17.39
-20.68
-24.19
-28.09
-32.56
-37.87
-44.15
-51.14
-57.94
-63.02
-64.58
-61.31
-52.94
-40.47
-25.97
-11.73
0.44
9.71
16.31
21.09
24.97
28.55
31.96
34.98
37.31
38.85
39.72
40.24
40.76
41.53
42.56
43.75
44.94
45.97
46.73
47.09
46.94
46.08
44.41
41.92
38.81
35.47
32.26
29.42
26.94
24.62
22.20
19.50
16.60
13.70
11.10
8.97
7.26
5.67
3.78
1.17
-2.36
-6.71
-11.53
-16.34
-20.74
-24.57
-27.90
-31.03
-34.44
-38.64
-43.98
-50.47
-57.45
-63.55
-66.84
-65.45
-58.35
-45.95
-30.16
-13.81
0.44
10.96
17.54
21.17
23.28
25.05
27.00
29.09
31.06
32.67
33.95
35.04
36.11
37.18
38.15
38.89
39.28
39.36
39.21
39.02
38.89
38.74
38.36
37.42
35.62
32.86
29.30
25.27
21.28
17.75
14.97
13.00
11.66
10.52
9.05
6.78
3.49
-0.65
-5.11
-9.29
-12.70
-15.20
-17.11
-18.95
-21.31
-24.65
-29.14
-34.63
-40.58
-46.00
-49.68
-50.30
-46.99
-39.66
-29.12
-16.94
-4.87
5.66
13.86
19.59
23.13
24.84
25.04
23.99
22.10
19.94
18.20
17.49
18.13
19.94
22.39
24.71
26.27
26.81
26.46
25.65
24.87
24.36
23.94
23.18
21.60
19.04
15.76
12.31
9.19
6.60
4.36
2.05
-0.58
-3.55
-6.58
-9.34
-11.72
-13.82
-15.89
-18.08
-20.46
-23.03
-25.96
-29.56
-34.04
-39.15
-43.99
-47.14
-47.17
-43.24
-35.49
-25.13
-13.82
-3.20
5.56
12.04
16.32
18.79
19.87
19.91
19.24
18.22
17.26
16.76
17.06
18.30
20.30
22.59
24.55
25.68
25.78
25.10
24.17
23.48
23.19
23.04
22.43
20.85
18.16
14.61
10.80
7.21
4.05
1.13
-1.90
-5.21
-8.77
-12.23
-15.26
-17.66
-19.47
-20.94
-22.35
-23.91
-25.74
-27.95
-30.60
-33.74
-37.11
-40.11
-41.82
-41.27
-37.82
-31.47
-22.98
-13.54
-4.47
3.30
9.31
13.57
16.28
17.67
17.90
17.13
15.70
14.13
12.95
12.59
13.18
14.58
16.40
18.24
19.72
20.64
20.92
20.59
19.73
18.43
16.86
15.13
13.31
11.40
9.31
6.93
4.21
1.24
-1.77
-4.51
-6.84
-8.75
-10.44
-12.19
-14.26
-16.73
-19.59
-22.83
-26.50
-30.63
-35.11
-39.37
-42.50
-43.40
-41.20
-35.70
-27.51
-17.89
-8.25
0.24
7.01
11.97
15.35
17.47
18.49
18.54
17.78
16.50
15.09
13.93
13.25
13.05
13.20
13.40
13.38
13.02
12.37
11.61
10.88
10.21
9.52
8.64
7.42
5.83
3.92
1.77
-0.50
-2.87
-5.28
-7.67
-9.98
-12.10
-14.01
-15.79
-17.69
-19.99
-22.99
-26.65
-30.53
-33.77
-35.27
-34.10
-29.93
-23.21
-15.04
-6.72
0.71
6.64
10.92
13.65
14.93
14.79
13.38
10.99
8.11
5.35
3.24
2.11
2.02
2.78
4.01
5.27
6.18
6.52
6.25
5.53
4.56
3.48
2.18
0.46
-1.84
-4.64
-7.60
-10.27
-12.34
-13.78
-15.00
-16.57
-18.86
-21.98
-25.63
-29.22
-32.04
-33.45
-32.97
-30.30
-25.44
-18.68
-10.67
-2.36
5.17
10.98
14.44
15.48
14.54
12.38
9.84
7.61
6.02
5.12
4.78
4.87
5.36
6.26
7.48
8.70
9.47
9.44
8.51
6.89
4.96
2.97
0.96
-1.24
-3.75
-6.47
-9.17
-11.59
-13.71
-15.75
-18.07
-20.92
-24.36
-28.17
-31.97
-35.24
-37.36
-37.57
-35.24
-30.07
-22.48
-13.63
-5.03
1.98
6.72
9.39
10.78
11.70
12.64
13.63
14.41
14.76
14.69
14.43
14.24
14.31
14.64
15.07
15.45
15.65
15.68
15.63
15.54
15.35
14.81
13.50
11.03
7.24
2.38
-2.89
-7.73
-11.43
-13.79
-15.20
-16.47
-18.46
-21.72
-26.30
-31.66
-36.80
-40.53
-41.73
-39.63
-34.17
-25.91
-16.05
-6.06
2.74
9.55
14.18
16.97
18.49
19.32
19.82
20.12
20.24
20.15
19.93
19.70
19.67
19.98
20.63
21.39
21.89
21.81
21.00
19.56
17.74
15.78
13.76
11.55
8.94
5.77
2.08
-1.83
-5.55
-8.68
-10.98
-12.55
-13.79
-15.31
-17.73
-21.41
-26.31
-31.86
-37.00
-40.48
-41.10
-38.12
-31.51
-22.13
-11.41
-1.04
7.56
13.62
17.22
19.04
19.96
20.65
21.29
21.72
21.66
20.97
19.87
18.79
18.06
17.80
17.80
17.74
17.40
16.79
16.09
15.44
14.78
13.74
11.85
8.84
4.84
0.41
-3.77
-7.18
-9.71
-11.66
-13.56
-15.88
-18.87
-22.59
-26.83
-31.17
-34.95
-37.26
-37.10
-33.76
-27.10
-17.87
-7.50
2.39
10.54
16.42
20.18
22.33
23.28
23.12
21.82
19.49
16.64
14.08
12.63
12.70
14.09
16.10
17.87
18.77
18.60
17.58
16.05
14.32
12.50
10.51
8.22
5.52
2.37
-1.15
-4.89
-8.60
-11.99
-14.87
-17.25
-19.39
-21.76
-24.81
-28.77
-33.52
-38.50
-42.80
-45.41
-45.42
-42.20
-35.70
-26.46
-15.58
-4.50
5.39
13.11
18.29
21.20
22.45
22.66
22.30
21.64
20.82
20.10
19.78
20.13
21.16
22.62
23.96
24.69
24.48
23.41
21.84
20.26
19.00
18.11
17.37
16.33
14.49
11.58
7.57
2.85
-2.06
-6.59
-10.39
-13.40
-15.81
-18.00
-20.41
-23.44
-27.44
-32.57
-38.57
-44.62
-49.31
-51.00
-48.49
-41.40
-30.59
-17.80
-5.08
5.89
14.25
19.95
23.50
25.53
26.53
26.79
26.56
26.17
25.96
26.25
27.12
28.43
29.80
30.92
31.56
31.70
31.48
30.98
30.16
28.83
26.81
24.01
20.63
16.97
13.31
9.84
6.50
3.18
-0.19
-3.52
-6.61
-9.22
-11.29
-12.94
-14.48
-16.29
-18.67
-21.82
-25.86
-30.80
-36.38
-41.96
-46.31
-47.90
-45.46
-38.54
-27.86
-15.23
-2.88
7.31
14.46
18.67
20.84
21.91
22.52
22.82
22.73
22.24
21.55
21.11
21.35
22.45
24.26
26.31
27.98
28.77
28.50
27.32
25.66
24.03
22.69
21.60
20.40
18.63
15.87
12.00
7.19
1.95
-3.12
-7.58
-11.19
-14.02
-16.29
-18.31
-20.36
-22.69
-25.50
-28.87
-32.60
-36.12
-38.43
-38.40
-35.13
-28.47
-19.20
-8.77
1.08
9.00
14.36
17.27
18.34
18.28
17.61
16.61
15.39
14.10
12.95
12.26
12.24
12.86
13.89
14.89
15.53
15.70
15.54
15.26
14.87
14.12
12.54
9.69
5.47
0.29
-5.12
-9.99
-13.78
-16.46
-18.49
-20.64
-23.70
-28.01
-33.29
-38.60
-42.54
-43.79
-41.47
-35.57
-26.80
-16.39
-5.71
4.02
11.89
17.34
20.23
20.82
19.70
17.67
15.47
13.61
12.24
11.25
10.55
10.08
9.95
10.26
10.95
11.76
12.32
12.30
11.51
9.99
7.87
5.31
2.46
-0.66
-3.97
-7.41
-10.87
-14.32
-17.90
-21.99
-26.98
-32.92
-39.24
-44.69
-47.66
-46.71
-41.24
-31.78
-19.88
-7.54
3.43
11.93
17.72
21.20
22.99
23.67
23.56
22.93
21.99
21.06
20.43
20.30
20.61
21.13
21.52
21.47
20.88
19.84
18.62
17.48
16.49
15.45
13.91
11.42
7.76
3.11
-1.96
-6.75
-10.76
-13.95
-16.77
-19.93
-24.11
-29.55
-35.90
-42.21
-47.11
-49.23
-47.53
-41.67
-32.20
-20.49
-8.28
2.78
11.54
17.61
21.28
23.24
24.22
24.84
25.52
26.41
27.51
28.69
29.72
30.37
30.47
29.95
28.94
27.64
26.22
24.83
23.38
21.81
19.90
17.46
14.37
10.58
6.19
1.48
-3.15
-7.34
-10.87
-13.80
-16.44
-19.24
-22.61
-26.80
-31.72
-36.86
-41.32
-43.95
-43.65
-39.79
-32.44
-22.51
-11.48
-0.93
7.99
14.79
19.64
23.07
25.59
27.43
28.49
28.69
28.03
26.83
25.61
24.88
24.88
25.50
26.38
26.95
26.83
25.88
24.21
22.14
19.93
17.70
15.42
12.94
10.11
6.90
3.36
-0.27
-3.77
-6.96
-9.77
-12.29
-14.66
-17.09
-19.85
-23.25
-27.45
-32.35
-37.35
-41.37
-43.08
-41.36
-35.80
-26.87
-15.91
-4.69
5.19
12.77
17.80
20.68
22.03
22.39
22.04
21.08
19.62
17.90
16.37
15.45
15.38
16.03
16.97
17.73
17.99
17.78
17.29
16.73
16.09
15.12
13.52
11.11
7.92
4.21
0.30
-3.45
-6.75
-9.52
-11.75
-13.67
-15.74
-18.52
-22.43
-27.42
-32.69
-36.89
-38.45
-36.30
-30.36
-21.61
-11.75
-2.52
4.94
10.27
13.82
16.03
17.20
17.30
16.20
14.05
11.34
8.79
7.02
6.31
6.50
7.26
8.18
9.00
9.54
9.65
9.19
8.04
6.20
3.78
0.94
-2.18
-5.52
-9.10
-12.88
-16.80
-20.74
-24.62
-28.41
-32.12
-35.58
-38.36
-39.65
-38.56
-34.42
-27.24
-17.83
-7.61
1.78
9.13
13.96
16.62
17.93
18.68
19.31
19.77
19.78
19.08
17.72
16.03
14.44
13.28
12.59
12.15
11.65
10.83
9.59
8.00
6.16
4.06
1.69
-1.01
-4.05
-7.33
-10.71
-14.08
-17.39
-20.74
-24.31
-28.25
-32.47
-36.57
-39.76
-41.08
-39.60
-34.85
-27.02
-16.99
-6.16
3.96
12.15
17.80
20.87
21.89
21.59
20.64
19.58
18.67
17.96
17.41
16.97
16.56
16.17
15.80
15.43
15.00
14.42
13.60
12.47
11.03
9.28
7.25
4.94
2.36
-0.47
-3.46
-6.46
-9.32
-11.97
-14.57
-17.38
-20.76
-24.92
-29.62
-34.11
-37.25
-37.87
-35.22
-29.34
-21.10
-11.91
-3.26
3.83
9.02
12.61
15.17
17.18
18.74
19.72
19.93
19.28
17.99
16.41
14.92
13.74
12.95
12.51
12.35
12.45
12.78
13.21
13.47
13.18
12.05
9.97
7.07
3.71
0.24
-3.01
-5.85
-8.20
-10.15
-11.91
-13.90
-16.58
-20.30
-25.00
-29.92
-33.81
-35.22
-33.06
-27.09
-18.11
-7.63
2.54
10.93
16.81
20.16
21.42
21.20
19.93
17.97
15.57
13.05
10.77
9.05
8.00
7.56
7.49
7.58
7.74
7.97
8.25
8.42
8.20
7.33
5.72
3.51
0.99
-1.55
-4.07
-6.63
-9.49
-12.90
-17.06
-21.97
-27.30
-32.36
-36.11
-37.37
-35.27
-29.62
-21.12
-11.25
-1.75
5.97
11.24
14.18
15.39
15.57
15.15
14.27
12.95
11.21
9.23
7.30
5.75
4.84
4.72
5.38
6.62
8.01
9.01
9.08
7.88
5.47
2.22
-1.33
-4.70
-7.68
-10.38
-13.07
-16.10
-19.65
-23.74
-28.24
-32.79
-36.78
-39.35
-39.60
-36.82
-30.92
-22.39
-12.34
-2.14
6.96
14.05
18.71
20.99
21.35
20.46
19.01
17.55
16.35
15.43
14.68
14.04
13.60
13.57
14.07
15.09
16.30
17.25
17.46
16.59
14.50
11.24
7.06
2.27
-2.77
-7.67
-12.16
-16.10
-19.52
-22.68
-25.95
-29.73
-34.10
-38.68
-42.57
-44.54
-43.46
-38.80
-30.89
-20.87
-10.32
-0.71
6.99
12.51
16.11
18.28
19.48
20.02
20.08
19.84
19.54
19.38
19.54
19.99
20.53
20.95
21.06
20.81
20.30
19.61
18.78
17.69
16.13
13.94
11.07
7.67
4.03
0.47
-2.74
-5.48
-7.85
-10.06
-12.44
-15.32
-18.99
-23.47
-28.44
-33.14
-36.49
-37.27
-34.60
-28.31
-19.09
-8.40
2.09
10.96
17.45
21.53
23.79
24.94
25.51
25.71
25.48
24.74
23.59
22.39
21.49
21.18
21.36
21.66
21.63
20.95
19.65
18.13
16.82
16.00
15.48
14.67
12.84
9.60
5.05
-0.10
-4.94
-8.71
-11.21
-12.81
-14.25
-16.26
-19.25
-23.17
-27.61
-31.88
-35.13
-36.48
-35.13
-30.67
-23.30
-13.94
-4.03
4.88
11.64
15.87
17.95
18.75
19.08
19.44
19.79
19.76
19.04
17.59
15.77
14.22
13.49
13.74
14.72
15.84
16.53
16.52
15.87
14.71
13.03
10.64
7.25
2.92
-1.83
-6.18
-9.42
-11.34
-12.43
-13.68
-16.03
-19.93
-25.07
-30.50
-34.90
-36.99
-35.97
-31.68
-24.60
-15.75
-6.44
2.16
9.18
14.30
17.58
19.33
19.84
19.30
17.81
15.51
12.62
9.51
6.62
4.41
3.19
3.09
4.00
5.59
7.40
8.93
9.71
9.39
7.84
5.11
1.50
-2.51
-6.43
-9.80
-12.45
-14.50
-16.39
-18.71
-21.98
-26.30
-31.19
-35.52
-37.87
-36.99
-32.32
-24.32
-14.36
-4.27
4.41
10.78
14.77
16.95
18.00
18.38
18.23
17.42
15.86
13.76
11.58
9.86
9.02
9.13
9.90
10.84
11.51
11.67
11.29
10.45
9.24
7.63
5.47
2.66
-0.80
-4.71
-8.81
-12.86
-16.81
-20.79
-25.09
-29.87
-35.01
-39.79
-43.07
-43.58
-40.34
-33.27
-23.20
-11.70
-0.60
8.68
15.39
19.52
21.50
21.92
21.42
20.45
19.41
18.53
17.90
17.46
17.12
16.75
16.37
16.09
16.00
16.09
16.21
