1630937882.00
64.000000
-0.00
-0.00
-0.00
-0.00
-0.00
-0.00
-0.00
-0.00
-0.00
-0.00
0.00
0.01
0.01
-0.00
-0.03
-0.05
-0.05
0.00
0.13
0.36
0.66
1.01
1.37
1.72
2.06
2.40
2.79
3.24
3.80
4.43
5.07
5.69
6.25
6.75
7.26
7.85
8.57
9.52
10.61
11.75
12.81
13.74
14.58
15.50
16.71
18.35
20.65
23.42
26.39
29.27
31.89
34.33
36.90
40.03
44.06
49.38
55.63
62.30
68.82
74.83
80.40
86.00
92.35
99.99
109.48
120.34
131.78
142.91
153.17
162.56
171.71
181.95
192.03
204.25
219.22
237.06
256.57
274.83
287.43
289.71
278.29
252.33
214.28
168.02
117.90
67.19
17.41
-31.26
-79.04
-125.70
-170.43
-211.88
-249.29
-282.26
-310.61
-334.01
-351.74
-363.21
-367.74
-365.10
-355.52
-340.14
-320.54
-298.31
-274.75
-250.70
-226.53
-202.20
-177.71
-153.19
-129.19
-106.53
-86.00
-67.78
-52.01
-38.63
-27.45
-18.22
-10.84
-5.33
-1.73
0.13
0.46
-0.51
-2.61
-5.58
-9.15
-13.21
-17.70
-22.59
-27.64
-32.61
-37.36
-41.86
-46.01
-49.55
-52.21
-53.50
-52.87
-49.39
-42.41
-30.52
-12.99
10.34
39.00
71.76
106.89
140.30
168.89
190.37
203.29
206.78
200.67
186.31
165.19
139.12
110.05
80.33
52.04
26.83
5.76
-10.61
-22.12
-29.19
-32.52
-33.02
-31.42
-28.53
-25.18
-22.13
-20.05
-19.38
-20.38
-23.10
-27.21
-32.10
-36.98
-41.12
-43.85
-44.56
-42.83
-38.41
-31.26
-21.64
-9.90
3.37
17.50
31.63
44.94
56.62
66.08
73.01
77.36
79.31
79.15
77.17
73.67
68.85
62.87
55.79
47.64
38.48
28.38
17.42
5.73
-6.56
-19.57
-33.35
-47.74
-62.52
-77.34
-91.83
-105.60
-118.34
-129.74
-139.99
-149.13
-157.15
-163.77
-168.62
-171.45
-172.28
-171.46
-169.67
-168.39
-168.91
-171.94
-177.59
-185.42
-194.92
-205.52
-216.86
-228.77
-241.79
-256.01
-270.74
-284.64
-295.88
-302.98
-305.03
-301.76
-287.57
-258.70
-212.86
-150.03
-73.13
12.19
98.61
178.94
247.39
300.15
334.10
347.80
341.16
316.16
278.47
235.08
193.88
161.68
141.44
130.50
122.34
109.64
88.34
59.91
30.24
6.78
-5.20
-4.96
4.09
16.82
28.06
33.81
30.92
17.01
-8.56
-43.39
-81.91
-116.34
-138.84
-144.81
-133.51
-107.50
-71.22
-28.54
17.24
63.14
106.06
143.06
171.79
191.77
203.70
209.02
209.51
206.19
199.57
190.18
178.73
166.41
155.01
145.22
136.47
126.91
114.36
98.25
80.41
64.83
55.53
54.13
58.77
65.25
69.96
72.24
74.67
80.94
92.68
107.86
121.74
129.05
126.59
114.77
96.35
75.35
55.81
40.72
32.50
32.09
37.95
45.60
48.18
38.06
10.13
-36.40
-97.16
-163.61
-225.05
-271.34
-295.79
-296.55
-277.01
-244.46
-206.74
-169.21
-133.14
-97.01
-59.77
-22.64
11.08
38.01
57.91
74.40
92.36
114.51
138.95
159.14
168.06
162.10
143.91
120.75
100.88
89.32
86.27
87.74
88.14
83.11
70.58
51.35
28.30
4.85
-16.50
-34.68
-50.14
-63.48
-74.59
-82.64
-85.03
-79.59
-66.14
-47.28
-28.76
-17.42
-18.14
-31.53
-53.17
-75.39
-90.98
-96.16
-91.53
-81.11
-68.61
-55.29
-39.80
-20.36
3.56
29.39
52.25
68.11
75.39
75.69
72.69
70.08
70.15
75.00
85.81
103.47
128.48
159.81
195.42
232.41
268.06
293.70
302.76
291.46
260.39
213.99
159.01
102.09
48.33
1.17
-37.05
-64.18
-80.12
-86.56
-87.03
-86.16
-87.84
-94.32
-105.49
-119.19
-130.40
-133.26
-123.14
-99.41
-66.72
-35.13
-15.71
-16.12
-36.99
-70.98
-106.24
-131.45
-139.96
-131.45
-110.84
-85.49
-62.62
-47.40
-41.97
-45.97
-56.94
-71.54
-86.81
-100.80
-112.65
-121.88
-127.30
-125.37
-113.49
-91.14
-60.93
-28.68
-1.00
17.81
27.55
31.84
35.38
41.02
48.86
56.31
59.78
56.76
47.49
34.62
22.40
14.62
13.11
17.24
23.88
28.98
29.05
22.20
8.19
-11.37
-33.23
-52.89
-64.97
-66.31
-56.43
-38.16
-17.01
0.63
10.53
12.18
8.82
6.35
9.87
21.93
40.55
62.47
81.41
91.74
90.36
75.19
51.39
26.37
6.54
-5.40
-10.43
-11.91
-12.57
-12.98
-11.69
-6.74
1.56
10.46
16.21
16.28
10.63
2.06
-5.30
-8.01
-4.43
3.86
13.34
20.27
22.17
18.10
8.65
-4.50
-18.85
-30.76
-36.66
-33.97
-22.10
-3.36
17.22
33.77
41.91
40.01
30.67
18.20
6.34
-3.13
-10.52
-16.90
-22.78
-27.49
-29.76
-28.71
-24.79
-19.64
-15.15
-12.85
-12.99
-14.74
-16.63
-17.32
-16.08
-13.19
-9.67
-6.70
-5.15
-5.11
-6.09
-7.17
-7.54
-6.88
-5.27
-3.27
-1.55
-0.59
-0.46
-0.89
-1.43
-1.67
-1.38
-0.63
0.32
1.17
1.70
1.88
1.82
1.68
1.62
1.74
2.01
2.36
2.70
2.98
3.18
3.31
3.40
3.44
3.43
3.36
3.25
3.09
2.97
2.91
2.94
3.05
3.17
3.26
3.23
3.09
2.87
2.64
2.50
2.47
2.52
2.57
2.52
2.27
1.81
1.22
0.63
0.19
-0.05
-0.17
-0.36
-0.89
-1.96
-3.60
-5.60
-7.56
-9.11
-10.10
-10.67
-11.33
-12.71
-15.31
-19.17
-23.82
-28.42
-32.13
-34.57
-35.99
-37.38
-39.91
-44.55
-51.41
-59.71
-68.02
-74.95
-79.80
-82.96
-85.80
-89.88
-96.27
-104.84
-114.10
-121.68
-124.96
-121.44
-108.91
-86.32
-54.09
-15.27
24.34
57.48
77.97
83.50
76.60
64.21
54.25
52.06
58.30
69.68
81.46
90.36
95.52
97.90
98.88
98.74
96.65
91.56
83.29
72.96
62.56
54.15
48.80
46.26
45.13
43.64
40.46
35.21
28.64
22.10
16.92
13.79
12.56
12.36
12.05
10.79
8.34
5.08
1.79
-0.79
-2.26
-2.71
-2.56
-2.39
-2.63
-3.40
-4.56
-5.74
-6.64
-7.08
-7.07
-6.79
-6.44
-6.18
-6.08
-6.09
-6.15
-6.17
-6.12
-5.99
-5.81
-5.60
-5.40
-5.20
-5.01
-4.83
-4.64
-4.45
-4.23
-4.02
-3.82
-3.68
-3.62
-3.60
-3.63
-3.63
-3.55
-3.39
-3.15
-2.90
-2.69
-2.58
-2.56
-2.59
-2.58
-2.49
-2.28
-1.98
-1.68
-1.50
-1.53
-1.73
-2.01
-2.19
-2.11
-1.70
-1.07
-0.46
-0.17
-0.41
-1.15
-2.11
-2.83
-2.87
-2.05
-0.61
0.90
1.77
1.52
0.17
-1.71
-3.22
-3.50
-2.24
0.20
2.84
4.47
4.30
2.33
-0.54
-2.84
-3.44
-1.77
1.71
5.85
9.20
10.60
9.24
4.68
-2.86
-11.98
-19.76
-22.39
-16.59
-1.65
19.68
41.78
58.33
65.03
61.33
50.14
35.55
21.59
9.58
-1.23
-12.06
-22.91
-32.28
-37.96
-38.64
-34.85
-28.85
-23.78
-22.08
-24.44
-29.52
-34.79
-37.70
-36.51
-30.67
-20.37
-6.71
8.44
22.18
31.02
31.78
23.29
7.49
-10.76
-25.51
-32.13
-29.51
-20.03
-7.89
3.25
11.85
18.33
23.83
28.71
32.02
32.29
28.61
21.33
11.97
2.41
-5.83
-12.39
-17.85
-23.28
-29.55
-36.71
-43.84
-49.46
-52.00
-50.50
-45.04
-36.59
-26.61
-16.98
-8.87
-2.63
2.12
6.17
10.22
14.49
18.64
21.91
23.51
23.04
20.85
17.78
14.96
13.40
13.53
14.96
16.68
17.52
16.71
14.25
10.87
7.82
6.11
6.22
7.76
9.67
10.70
9.81
6.16
-0.91
-11.55
-24.85
-38.32
-48.28
-50.94
-44.35
-29.70
-11.36
4.79
13.99
14.29
7.64
-1.84
-10.04
-14.68
-15.63
-13.92
-10.70
-6.40
-0.85
6.03
13.78
21.35
27.61
31.69
33.37
32.88
30.74
27.41
23.25
18.48
13.30
7.99
2.96
-1.28
-4.90
-7.77
-10.04
-11.83
-13.08
-13.28
-11.91
-8.13
-0.72
11.17
27.86
47.64
66.57
79.06
79.92
67.04
42.18
12.81
-12.96
-29.21
-34.17
-29.81
-20.28
-9.75
-1.25
3.50
3.82
-0.40
-8.25
-17.83
-26.63
-32.68
-35.32
-35.29
-33.84
-31.89
-29.86
-27.77
-25.97
-25.28
-26.71
-30.95
-37.45
-44.90
-51.30
-55.03
-55.53
-53.24
-49.51
-45.99
-43.79
-43.45
-45.00
-48.33
-53.15
-58.42
-61.80
-59.90
-49.56
-29.65
-2.34
27.27
53.07
70.49
78.27
78.45
74.74
70.27
66.42
62.84
58.71
53.90
49.29
46.20
45.34
46.34
47.87
48.52
47.28
44.26
40.42
37.09
35.30
35.37
36.81
38.60
39.71
39.50
37.96
35.62
33.28
31.51
30.48
30.09
29.63
28.58
26.66
23.93
20.70
17.33
13.96
10.55
6.95
2.90
-1.64
-6.54
-11.50
-16.42
-20.78
-24.46
-27.50
-29.96
-31.76
-32.68
-32.48
-31.04
-28.49
-25.31
-22.16
-19.66
-18.07
-17.15
-16.26
-14.61
-11.64
-7.39
-2.47
1.98
4.93
5.96
5.52
4.89
5.58
8.67
14.17
20.94
27.05
30.85
31.53
29.74
27.24
26.08
27.89
33.32
41.99
52.42
61.99
67.25
64.70
52.14
29.98
1.73
-27.29
-51.68
-68.17
-76.87
-80.12
-81.05
-81.97
-83.58
-85.04
-84.60
-80.25
-70.65
-55.91
-38.10
-21.16
-9.82
-7.45
-14.37
-27.77
-43.06
-56.38
-66.58
-75.27
-84.84
-95.61
-104.40
-105.61
-94.22
-69.12
-34.51
1.64
31.00
48.33
53.55
51.04
46.48
43.98
44.38
45.70
45.23
41.58
35.56
29.53
25.82
25.35
27.31
29.82
30.78
29.16
25.25
20.37
16.21
13.93
13.72
14.81
15.96
16.05
14.63
12.04
9.11
6.76
5.56
5.49
6.05
6.54
6.47
5.70
4.48
3.26
2.47
2.27
2.54
3.01
3.34
3.35
3.02
2.49
1.96
1.57
1.40
1.43
1.61
1.85
2.10
2.32
2.50
2.67
2.84
3.04
3.26
3.51
3.73
3.94
4.17
4.48
4.96
5.66
6.55
7.54
8.51
9.34
10.00
10.55
11.09
11.78
12.71
13.95
15.51
17.34
19.32
21.26
22.96
24.19
24.89
25.21
25.57
26.54
28.72
32.23
36.48
40.28
42.12
41.13
38.03
35.40
36.68
43.77
55.13
64.85
64.68
47.72
11.99
-38.13
-93.56
-144.07
-181.87
-202.64
-205.40
-190.58
-160.29
-119.37
-76.36
-42.56
-28.04
-36.61
-62.74
-93.35
-113.36
-113.05
-92.36
-60.19
-29.20
-8.89
-1.67
-3.20
-6.47
-6.21
-1.38
5.39
11.11
14.25
16.10
19.69
27.32
38.80
51.51
61.74
66.55
65.58
60.49
54.59
50.85
50.77
53.59
57.19
59.13
57.79
53.10
46.34
39.61
34.76
32.59
32.77
34.08
35.16
35.02
33.44
30.80
27.92
25.55
24.15
23.76
24.25
25.34
26.71
28.05
29.05
29.45
29.19
28.47
27.73
27.62
28.62
30.71
33.12
34.58
33.74
29.68
22.39
12.64
2.10
-7.95
-16.77
-24.56
-32.30
-41.23
-52.16
-65.23
-79.84
-94.37
-106.51
-113.39
-112.29
-101.58
-81.74
-55.83
-28.21
-4.81
10.65
17.43
17.39
13.42
7.80
1.46
-5.84
-14.29
-23.13
-30.47
-34.10
-32.20
-24.19
-10.93
5.16
20.20
29.48
29.18
18.10
-1.34
-23.52
-41.47
-49.95
-47.47
-36.24
-21.40
-7.70
2.63
10.06
16.31
22.65
28.97
34.07
36.70
36.43
34.14
31.44
30.03
30.82
33.71
37.81
41.83
44.48
44.99
43.36
40.28
36.87
34.29
33.41
34.38
36.74
39.45
41.27
41.19
38.61
33.02
23.79
10.56
-5.87
-22.95
-36.48
-41.99
-36.93
-22.32
-2.85
15.03
25.58
26.67
20.12
10.01
0.34
-6.86
-11.76
-15.48
-18.75
-21.32
-22.16
-20.55
-16.79
-12.20
-8.35
-6.57
-7.03
-8.92
-10.86
-11.52
-10.32
-7.54
-4.18
-1.40
-0.00
-0.11
-1.18
-2.35
-2.76
-2.07
-0.43
1.60
3.33
4.33
4.50
4.14
3.69
3.57
3.98
4.84
5.90
6.85
7.49
7.78
7.83
7.81
7.87
8.10
8.47
8.94
9.40
9.84
10.23
10.59
10.95
11.34
11.75
12.18
12.64
13.11
13.58
14.06
14.55
15.02
15.49
15.93
16.33
16.67
16.95
17.12
17.18
17.09
16.84
16.40
15.78
14.98
14.01
12.90
11.66
10.30
8.82
7.22
5.45
3.52
1.42
-0.82
-3.19
-5.64
-8.11
-10.51
-12.68
-14.41
-15.54
-15.93
-15.47
-14.11
-11.94
-9.16
-6.00
-2.61
0.94
4.79
9.28
14.89
22.07
31.25
42.71
56.35
72.00
89.20
107.32
125.39
142.16
156.26
166.23
170.70
168.61
159.62
143.81
121.78
94.39
62.57
26.84
-12.39
-54.81
-99.91
-146.60
-193.33
-237.89
-277.75
-310.37
-333.51
-345.06
-343.18
-326.09
-292.24
-241.16
-174.05
-94.37
-7.94
78.00
155.78
219.18
263.87
288.41
293.97
283.41
260.19
227.63
188.30
143.47
92.79
34.78
-32.58
-110.05
-195.44
-282.78
-363.54
-428.74
-471.80
-491.02
-490.17
-476.79
-459.05
-442.58
-428.49
-413.90
-393.91
-364.28
-323.58
-272.82
-214.99
-154.40
-95.78
-43.77
-2.49
25.16
39.30
44.45
48.83
61.84
91.02
139.46
204.83
280.96
359.56
430.99
485.07
513.22
511.00
480.63
431.02
374.49
320.60
271.43
220.44
156.05
68.74
-42.76
-168.76
-291.42
-390.98
-451.95
-467.58
-441.13
-384.32
-314.69
-250.48
-206.45
-190.01
-200.71
-232.06
-275.43
-323.56
-371.88
-417.88
-460.00
-496.92
-527.92
-553.53
-575.07
-592.95
-604.22
-601.84
-575.81
-517.13
-421.85
-293.29
-141.40
20.77
180.98
331.51
469.63
596.43
714.97
827.39
933.83
1032.00
1118.37
1189.70
1243.42
1278.21
1293.35
1288.31
1263.05
1218.78
1157.77
1083.82
1001.53
915.15
828.10
742.38
658.84
577.10
497.93
420.78
344.72
268.26
189.69
107.35
19.90
-73.40
-171.84
-273.50
-375.16
-472.50
-561.23
-637.26
-697.99
-742.51
-771.51
-786.88
-791.16
-787.04
-776.66
-761.34
-740.59
-713.61
-679.46
-637.30
-586.53
-527.31
-460.69
-388.37
-312.73
-236.31
-161.99
-92.54
-30.10
23.95
68.77
104.20
130.95
149.89
162.51
169.92
173.17
173.46
171.34
167.18
161.28
153.94
145.72
137.44
129.95
124.28
121.43
121.70
124.91
130.48
137.37
144.38
150.82
155.01
154.87
148.14
132.20
104.74
64.52
11.85
-50.61
-118.14
-184.54
-242.97
-287.49
-314.00
-320.89
-308.77
-280.65
-240.73
-194.41
-147.58
-105.31
-70.81
-44.88
-26.29
-13.15
-4.53
-0.64
-2.64
-10.97
-23.75
-36.55
-43.83
-41.51
-28.79
-8.60
14.43
36.01
53.71
67.41
77.86
85.68
90.66
92.21
90.08
84.70
77.42
69.71
63.27
58.94
56.74
55.83
55.03
53.36
50.36
46.20
41.63
37.78
35.61
35.83
38.44
42.70
47.71
52.37
55.74
57.34
57.13
55.33
52.90
49.60
44.54
37.10
26.36
11.78
-6.21
-26.76
-48.51
-69.91
-89.42
-105.22
-114.88
-116.51
-110.17
-98.24
-85.35
-76.41
-74.58
-79.77
-88.73
-96.70
-99.10
-94.80
-84.90
-71.71
-56.95
-41.23
-24.46
-6.82
10.70
26.11
37.52
44.29
46.55
45.80
43.84
42.00
41.05
40.77
40.19
38.42
35.36
31.34
27.16
23.69
21.40
20.24
19.56
18.57
16.66
13.76
10.27
6.95
4.47
3.06
2.40
1.72
0.27
-2.26
-5.77
-9.62
-12.89
-14.91
-15.59
-15.49
-15.62
-16.93
-19.82
-24.00
-28.56
-32.49
-34.94
-35.57
-34.71
-33.08
-31.64
-31.67
-34.45
-40.62
-48.98
-56.41
-57.89
-48.79
-27.19
4.75
41.08
74.24
97.67
107.85
104.86
91.89
73.85
56.03
43.01
37.57
40.09
48.45
58.94
67.48
71.52
70.74
66.79
62.07
58.86
58.70
61.89
67.08
71.00
69.09
57.03
33.14
0.27
-35.15
-65.34
-84.45
-91.14
-88.45
-81.58
-75.17
-71.55
-70.57
-70.99
-71.12
-69.08
-62.69
-49.57
-28.12
1.03
34.00
64.51
86.00
94.79
91.73
81.44
69.52
59.28
50.30
39.46
23.80
3.12
-19.35
-38.60
-50.70
-54.78
-53.16
-49.68
-47.11
-46.11
-45.43
-43.58
-40.28
-36.57
-33.79
-32.65
-32.61
-31.91
-28.85
-22.17
-11.91
0.62
13.00
22.40
26.65
25.50
21.32
18.25
20.47
29.78
44.19
58.81
67.65
66.75
56.02
38.95
20.71
5.64
-4.58
-10.53
-13.69
-15.40
-16.00
-15.15
-12.78
-9.41
-6.08
-3.73
-2.87
-2.84
-2.76
-1.85
0.27
3.10
5.76
7.40
7.75
7.28
7.05
7.99
10.41
13.93
17.49
19.78
19.98
18.13
14.98
11.96
10.76
12.66
18.03
24.94
29.10
24.80
7.34
-24.73
-68.04
-115.13
-157.69
-188.78
-205.94
-211.00
-207.99
-200.63
-190.88
-178.93
-163.42
-144.61
-121.75
-93.90
-60.20
-20.94
21.41
62.12
96.13
119.61
131.42
133.89
130.63
124.82
118.04
110.49
102.17
93.90
87.43
84.16
84.81
88.21
91.95
93.48
91.32
85.73
78.47
71.94
67.91
67.22
69.54
73.97
79.23
83.57
84.50
79.05
64.84
41.53
11.85
-18.95
-45.04
-62.32
-70.01
-70.36
-66.97
-62.75
-58.77
-54.51
-49.29
-43.26
-37.74
-34.30
-33.70
-35.27
-37.30
-37.87
-35.70
-31.00
-25.10
-19.79
-16.36
-14.88
-14.09
-12.09
-6.90
2.47
15.44
30.01
43.43
53.10
57.50
56.43
50.85
42.06
31.14
18.50
4.04
-12.31
-30.31
-49.39
-68.73
-87.25
-103.39
-114.72
-118.36
-111.37
-92.94
-65.30
-33.61
-4.32
17.29
29.00
32.18
30.25
26.99
24.36
22.35
20.04
16.79
13.06
10.14
9.29
10.77
13.77
16.72
18.00
16.88
13.68
9.63
6.29
4.92
5.86
8.48
11.41
13.15
12.78
10.25
6.62
3.10
0.96
0.68
1.82
3.63
5.32
6.61
7.18
6.34
2.94
-3.87
-13.75
-24.75
-33.70
-37.92
-36.57
-31.38
-25.83
-23.34
-25.43
-31.18
-38.21
-43.93
-47.11
-47.71
-46.33
-43.45
-38.89
-32.12
-23.03
-12.32
-1.16
8.64
15.71
19.54
20.39
19.24
17.27
15.50
14.28
13.58
12.84
11.55
9.62
7.36
5.33
4.16
4.22
5.47
7.60
9.90
11.64
12.62
12.76
12.25
11.24
9.87
8.06
5.77
2.68
-1.38
-5.99
-10.75
-15.26
-19.23
-22.71
-26.09
-29.91
-34.86
-41.57
-49.43
-57.95
-66.44
-74.07
-80.20
-84.48
-86.85
-87.39
-86.51
-83.33
-77.22
-67.55
-53.63
-34.64
-9.31
24.08
68.09
118.68
172.79
226.15
274.26
313.76
343.30
363.67
377.08
385.86
391.38
394.75
395.48
393.02
387.56
379.99
371.01
360.12
345.10
322.38
288.88
241.09
177.51
100.07
14.06
-73.39
-155.52
-227.29
-286.10
-331.22
-365.64
-393.24
-417.00
-438.23
-457.33
-474.28
-487.59
-493.18
-484.25
-456.65
-409.80
-348.38
-282.01
-223.75
-186.42
-177.74
-197.37
-220.62
-223.88
-195.95
-144.75
-86.59
-33.89
8.52
41.82
69.76
95.61
117.57
131.63
134.71
127.32
112.89
96.04
81.06
70.86
66.54
65.31
63.60
59.11
52.27
45.43
40.79
39.47
41.08
44.32
46.91
48.01
48.72
52.37
61.73
76.58
93.50
107.10
112.86
108.47
94.79
74.85
52.66
31.85
14.88
3.76
-0.64
1.01
5.82
9.31
7.02
-2.21
-14.90
-24.41
-23.53
-8.84
17.81
50.50
82.27
106.87
122.97
134.50
144.35
156.76
174.68
199.11
228.97
261.18
288.20
303.51
303.86
288.77
259.98
220.18
173.04
122.53
71.94
18.71
-38.27
-96.35
-151.41
-200.54
-242.71
-277.70
-305.27
-325.17
-343.32
-362.39
-379.77
-391.25
-395.50
-394.89
-393.62
-396.12
-366.35
-295.63
-206.34
-127.87
-72.12
-35.63
-10.66
9.03
26.66
42.98
51.33
48.59
38.11
26.49
18.58
16.07
18.64
24.76
32.55
35.49
30.31
18.71
4.57
-9.38
-21.39
-29.02
-28.65
-16.77
4.91
32.56
61.56
86.92
104.20
111.53
110.64
105.53
100.07
94.66
88.26
80.23
70.99
61.82
54.36
49.87
48.63
49.68
50.84
49.98
46.31
40.31
33.29
26.91
22.65
21.30
22.60
25.34
27.75
28.29
26.19
21.94
16.84
12.53
10.19
10.12
11.87
14.80
18.57
22.74
25.97
25.60
18.40
2.68
-19.74
-43.06
-59.49
-62.74
-51.33
-29.45
-4.89
14.76
25.46
27.82
25.63
23.06
22.53
24.13
26.56
28.55
29.61
29.96
29.90
29.64
29.13
28.37
27.86
28.78
32.47
39.25
47.17
51.86
47.77
30.66
0.18
-38.93
-77.83
-106.69
-118.36
-111.03
-88.77
-59.81
-33.54
-17.49
-15.20
-25.65
-44.04
-63.76
-78.67
-84.82
-81.73
-71.14
-56.23
-40.03
-24.69
-11.32
-0.37
8.06
14.27
19.00
23.41
28.46
34.39
40.36
44.96
47.03
46.39
44.12
41.78
40.50
40.32
40.23
38.90
35.43
29.44
20.78
9.14
-6.16
-25.48
-47.73
-69.76
-86.99
-94.92
-91.39
-77.58
-57.48
-36.02
-16.85
-1.22
11.78
24.06
37.31
52.14
68.10
83.81
97.12
105.11
104.33
91.58
65.64
28.69
-13.34
-52.00
-79.24
-90.03
-83.77
-64.25
-38.29
-13.62
3.05
7.62
-0.27
-16.86
-35.34
-47.85
-47.66
-32.43
-5.37
26.13
53.93
72.78
81.87
84.23
84.45
86.11
90.49
96.83
103.64
110.17
116.79
124.67
135.00
148.25
163.04
175.51
179.52
168.39
137.64
87.23
22.28
-48.38
-114.23
-166.17
-199.27
-213.74
-213.96
-206.29
-196.54
-188.55
-183.98
-181.64
-178.19
-169.47
-152.22
-125.37
-90.84
-53.69
-18.63
7.43
20.25
21.75
19.39
21.27
31.42
48.23
65.40
77.65
81.60
76.82
65.43
50.92
37.43
29.62
32.77
50.49
82.57
123.70
165.52
199.68
219.54
220.95
202.50
165.14
111.65
46.76
-23.54
-91.86
-150.22
-188.24
-198.58
-179.76
-137.05
-80.49
-20.46
34.83
77.64
107.98
127.52
138.49
144.22
148.85
155.72
165.93
176.26
179.89
169.91
142.05
97.13
41.18
-16.73
-67.65
-104.90
-124.90
-126.80
-111.45
-81.99
-43.63
-2.68
34.67
63.56
81.23
86.54
79.48
61.37
34.40
1.99
-31.30
-60.56
-81.54
-91.75
-90.80
-80.28
-63.40
-44.73
-28.98
-19.85
-19.18
-27.20
-43.34
-67.05
-97.97
-135.12
-175.90
-215.43
-247.41
-266.21
-269.26
-258.42
-239.53
-219.76
-204.25
-193.91
-184.82
-170.09
-143.00
-100.30
-43.91
18.96
77.89
122.52
146.23
148.51
135.46
117.98
107.86
113.40
136.11
170.53
206.75
234.69
247.75
244.31
226.69
198.74
163.75
123.88
81.07
38.29
0.07
-28.71
-45.33
-51.19
-51.97
-55.31
-66.79
-86.87
-110.21
-128.74
-136.39
-133.26
-126.30
-125.87
-140.33
-171.94
-216.17
-264.75
-310.08
-348.17
-378.89
-403.80
-423.64
-437.34
-443.01
-439.69
-428.60
-412.64
-394.85
-376.50
-356.13
-330.22
-294.62
-246.30
-184.73
-112.20
-33.49
45.30
118.18
180.19
228.04
260.35
278.06
284.19
283.11
279.23
275.40
272.08
267.44
258.86
245.13
228.27
213.65
208.32
218.05
244.47
283.85
327.79
365.47
386.83
385.16
358.68
310.87
249.26
183.35
122.14
71.96
35.37
11.28
-3.96
-14.69
-24.31
-34.49
-45.27
-55.65
-64.45
-70.84
-74.42
-75.29
-73.78
-70.53
-66.66
-63.83
-64.09
-69.44
-81.02
-98.24
-118.45
-137.46
-150.80
-155.39
-150.71
-139.11
-124.91
-112.66
-105.30
-103.15
-103.98
-104.39
-102.02
-96.90
-91.53
-89.16
-91.27
-95.86
-97.68
-90.43
-69.93
-36.61
4.18
43.80
73.37
86.77
82.35
63.24
36.31
10.11
-7.61
-12.08
-2.76
16.80
40.89
63.99
82.41
94.45
99.35
96.47
85.52
67.78
47.12
29.82
22.27
28.00
45.56
68.79
89.41
100.68
99.93
89.07
73.01
57.19
45.53
39.66
39.07
42.28
47.74
54.53
62.47
71.87
82.96
95.42
108.76
122.46
136.20
149.19
159.71
164.96
162.14
150.28
131.94
113.26
102.01
104.38
122.22
152.17
187.16
218.97
240.74
248.17
239.32
213.63
171.49
114.22
44.94
-30.74
-105.36
-171.10
-222.40
-257.46
-278.48
-289.96
-296.32
-300.08
-301.37
-299.30
-293.39
-284.54
-274.30
-263.54
-251.23
-234.60
-210.70
-178.22
-138.74
-96.20
-55.38
-20.16
7.67
28.72
45.37
60.55
76.21
92.07
106.19
116.52
123.03
129.22
140.98
163.94
199.98
245.60
293.26
335.29
367.46
390.40
407.76
422.26
432.45
432.37
414.14
372.33
307.49
227.35
145.01
75.10
28.87
10.00
13.19
26.03
33.75
24.92
-4.31
-49.32
-99.71
-143.95
-174.46
-189.79
-194.00
-193.00
-191.29
-189.66
-185.30
-173.52
-149.63
-111.21
-58.47
6.33
79.71
157.01
231.79
295.56
338.74
353.77
337.30
292.18
226.94
153.17
81.87
20.61
-27.37
-66.53
-99.73
-127.93
-149.82
-163.42
-168.00
-164.92
-156.83
-146.43
-135.11
-123.36
-111.95
-102.23
-96.09
-95.44
-101.48
-114.21
-132.71
-155.43
-180.61
-207.31
-235.07
-263.06
-289.22
-309.86
-320.33
-316.24
-294.95
-256.61
-204.87
-146.08
-87.55
-35.53
6.17
36.49
56.37
67.92
73.79
76.49
78.04
78.99
77.96
71.59
56.00
29.10
-7.07
-46.06
-79.24
-99.42
-104.02
-95.77
-80.68
-64.48
-50.09
-37.19
-24.03
-9.31
6.65
22.31
36.30
48.23
58.58
67.79
75.43
80.39
81.90
80.33
77.03
73.10
68.05
59.55
44.91
23.13
-3.57
-30.12
-50.95
-62.65
-65.60
-63.28
-60.36
-60.28
-64.14
-71.13
-79.75
-88.96
-98.22
-107.07
-114.43
-118.48
-117.01
-108.10
-90.80
-65.58
-34.44
-0.66
31.72
58.73
77.21
85.34
82.56
69.15
45.90
14.00
-24.50
-66.42
-107.27
-142.09
-166.78
-179.41
-180.82
-173.93
-162.55
-149.80
-137.26
-124.66
-110.47
-92.91
-70.86
-44.16
-13.51
19.85
54.23
87.36
116.30
137.86
149.35
149.78
140.33
123.90
103.82
82.47
60.65
38.26
15.85
-4.01
-16.61
-16.62
-0.53
31.42
74.74
122.15
165.76
199.32
219.24
224.36
215.18
193.33
161.65
124.63
88.18
58.33
39.29
31.66
32.20
35.42
35.98
30.84
19.62
3.61
-15.91
-38.50
-63.87
-90.48
-114.48
-130.41
-133.08
-120.16
-93.36
-57.93
-20.63
12.56
37.81
53.61
59.96
57.81
48.90
35.73
21.52
9.45
1.82
-0.66
1.26
5.90
11.58
17.20
22.14
26.07
28.54
29.21
27.94
25.16
21.76
18.75
16.84
16.02
15.84
15.67
15.40
15.41
16.42
18.93
22.94
27.91
32.95
37.35
40.74
43.38
45.60
47.28
47.85
46.55
42.99
37.53
31.40
26.15
23.68
24.94
29.56
36.03
42.44
47.35
50.25
51.54
52.02
53.26
56.01
60.25
65.11
69.60
73.49
77.66
84.25
95.79
115.14
143.30
178.37
215.49
248.17
270.32
278.17
271.35
244.87
199.08
139.59
76.05
18.82
-24.70
-51.75
-63.33
-62.41
-51.48
-33.96
-14.01
3.56
14.11
14.29
3.05
-19.07
-51.06
-89.97
-131.82
-173.03
-211.31
-245.30
-273.91
-295.75
-309.48
-314.11
-309.97
-298.67
-282.91
-266.00
-251.14
-240.86
-236.35
-236.65
-237.85
-233.79
-217.87
-185.80
-138.17
-80.90
-23.38
25.18
59.20
78.24
86.01
87.56
86.69
84.83
81.73
77.01
71.28
66.10
63.09
62.88
64.58
66.48
66.63
64.12
59.29
53.49
48.40
45.22
44.24
44.72
45.39
44.98
42.89
39.26
34.88
30.73
27.47
25.34
24.03
22.95
21.43
19.12
16.01
12.35
8.47
4.33
0.06
-4.30
-8.59
-12.88
-17.07
-21.03
-24.53
-27.32
-29.21
-29.86
-29.01
-26.54
-22.85
-18.62
-15.26
-14.24
-16.40
-22.10
-30.33
-39.09
-45.73
-48.02
-45.16
-37.51
-26.36
-12.98
1.50
17.07
34.53
54.77
77.60
101.15
121.89
135.39
138.22
128.69
107.48
77.23
41.75
4.87
-29.70
-59.09
-81.87
-97.93
-110.58
-125.02
-146.71
-178.23
-216.61
-253.23
-277.14
-280.43
-262.06
-229.07
-193.15
-165.05
-149.97
-146.21
-148.00
-149.57
-147.85
-142.29
-133.15
-118.55
-94.08
-54.37
3.33
77.27
160.35
242.40
313.97
368.63
404.69
424.07
430.35
427.50
418.03
402.97
382.31
356.42
326.56
294.98
263.87
234.51
206.70
178.42
146.24
106.33
56.33
-4.12
-73.34
-148.14
-224.82
-300.14
-371.74
-438.37
-499.70
-556.64
-611.19
-665.41
-720.31
-774.47
-822.91
-858.21
-873.03
-863.27
-829.91
-778.64
-717.12
-651.52
-584.65
-515.14
-439.25
-352.45
-251.48
-134.55
-1.35
146.36
303.75
462.50
612.38
743.55
848.63
923.80
968.75
984.79
973.68
937.36
878.41
800.07
705.90
598.73
480.27
351.68
215.20
76.13
-56.77
-172.78
-261.86
-317.43
-337.75
-324.85
-283.76
-220.45
-140.90
-50.50
45.37
141.41
232.57
314.45
383.92
439.17
479.44
504.87
516.06
513.82
499.12
473.20
437.39
393.49
343.56
289.81
234.39
179.14
125.47
74.32
26.39
-17.83
-57.83
-93.21
-123.64
-148.97
-169.29
-184.94
-196.44
-204.41
-209.42
-211.91
-212.23
-210.64
-207.39
-202.72
-196.91
-190.28
-183.08
-175.55
-167.83
-160.01
-152.17
-144.33
-136.54
-128.83
-121.24
-113.78
-106.49
-99.37
-92.45
-85.76
-79.29
-73.09
-67.17
-61.54
-56.22
-51.15
-46.35
-41.87
-37.70
-33.86
-30.34
-27.14
-24.23
-21.61
-19.26
-17.18
-15.34
-13.72
-12.30
-11.05
-9.96
-9.00
-8.16
-7.41
-6.74
-6.15
-5.62
-5.13
-4.69
-4.29
-3.91
-3.57
-3.28
-3.02
-2.82
-2.66
-2.53
-2.43
-2.37
-2.31
-2.27
-2.25
-2.22
-2.20
-2.17
-2.12
-2.05
-1.96
-1.81
-1.64
-1.44
-1.21
-0.99
-0.76
-0.52
-0.31
-0.14
0.05
0.22
0.39
0.54
0.69
0.85
1.03
1.23
1.42
1.67
1.94
2.26
2.59
2.87
3.10
3.40
3.79
4.24
5.03
6.32
8.32
11.29
15.16
19.83
25.26
31.00
36.12
39.98
41.71
40.65
36.32
28.58
17.79
4.68
-9.59
-23.60
-35.83
-44.68
-49.03
-48.18
-41.93
-30.48
-14.59
4.78
26.50
49.12
70.94
90.44
105.99
115.92
119.10
114.62
102.28
82.82
57.60
28.02
-3.75
-35.30
-64.47
-88.94
-107.02
-117.26
-119.26
-113.07
-99.88
-81.55
-60.40
-38.86
-19.20
-2.88
9.59
18.31
23.67
26.25
26.03
22.83
15.59
3.97
-11.70
-30.02
-48.94
-66.87
-82.06
-94.08
-102.94
-109.76
-115.04
-119.27
-122.15
-122.95
-121.29
-115.45
-103.77
-83.78
-54.92
-18.15
23.11
64.29
101.26
131.42
153.99
169.12
176.99
176.62
166.54
145.95
115.97
80.47
44.40
12.97
-10.49
-23.77
-26.66
-21.37
-11.63
-2.08
4.00
4.89
1.64
-4.04
-9.84
-13.78
-14.60
-12.10
-8.01
-4.61
-5.05
-11.19
-23.39
-40.47
-59.66
-78.22
-94.85
-108.89
-118.96
-122.05
-114.01
-92.77
-60.39
-23.85
7.56
27.10
35.20
38.63
47.04
67.13
97.20
128.27
149.45
153.88
143.13
125.10
108.69
98.35
92.18
83.00
63.12
29.51
-15.31
-65.55
-116.31
-166.40
-217.43
-262.84
-292.30
-295.96
-270.69
-221.35
-157.98
-91.94
-32.60
14.12
47.06
67.61
78.78
83.34
83.84
82.40
79.91
76.46
71.85
66.40
61.30
57.84
57.07
59.87
66.33
75.28
84.24
90.51
89.93
80.06
60.16
33.54
6.76
-12.19
-17.25
-8.42
6.54
15.38
7.08
-23.62
-72.41
-127.47
-174.42
-201.34
-199.17
-170.14
-126.39
-74.91
-21.53
29.66
74.85
110.72
136.65
154.20
165.21
170.22
168.60
151.87
116.09
62.17
-2.50
-63.95
-106.99
-121.80
-107.13
-69.24
-19.09
31.95
73.77
93.09
80.85
41.30
-9.80
-55.45
-86.60
-101.95
-104.72
-100.42
-93.37
-84.86
-74.58
-62.85
-51.27
-41.69
-33.39
-23.47
-9.09
11.66
39.54
72.52
106.14
137.23
158.77
167.25
163.83
151.21
133.45
115.05
99.23
87.13
78.25
71.27
64.98
58.53
49.99
38.19
23.75
9.89
1.76
4.17
19.26
40.54
61.27
73.17
70.46
52.67
24.35
-7.26
-35.80
-58.25
-73.82
-83.06
-86.90
-87.47
-86.76
-87.88
-93.14
-103.21
-115.62
-124.34
-123.01
-108.78
-85.31
-61.07
-45.87
-46.26
-62.54
-89.22
-116.47
-134.59
-138.55
-129.30
-112.63
-94.96
-80.54
-70.06
-61.09
-49.94
-34.20
-14.63
5.12
20.22
27.00
23.98
13.14
-0.90
-11.86
-14.73
-7.04
9.90
31.71
53.08
69.02
76.33
74.11
64.16
49.75
35.95
27.07
25.54
30.87
39.02
44.20
42.17
32.23
17.59
3.98
-3.89
-3.87
4.01
18.77
39.38
64.33
92.18
120.19
144.81
162.47
170.49
168.55
157.34
137.33
107.95
70.46
29.00
-9.56
-38.68
-54.84
-58.27
-53.92
-48.46
-48.43
-55.47
-65.26
-69.75
-61.08
-33.87
14.49
82.08
163.05
237.75
282.01
280.60
238.21
173.50
104.49
42.08
-10.47
-53.45
-87.70
-111.08
-120.09
-113.02
-93.14
-67.69
-44.55
-29.40
-23.86
-26.19
-31.27
-33.55
-30.16
-22.57
-15.04
-11.84
-15.14
-23.75
-34.63
-43.44
-46.11
-41.27
-31.04
-20.24
-14.18
-17.28
-31.36
-54.97
-83.02
-108.15
-123.23
-124.29
-112.64
-93.79
-74.92
-61.32
-53.97
-49.29
-42.27
-29.83
-12.27
5.92
20.41
27.47
25.95
16.56
1.51
-15.49
-30.35
-38.23
-36.26
-25.10
-9.23
4.99
13.35
16.09
18.07
24.60
37.21
50.81
56.99
48.64
25.51
-4.48
-29.70
-41.00
-36.30
-20.75
-3.64
8.01
12.09
11.01
9.73
11.49
17.04
23.73
28.57
29.51
26.72
22.37
18.99
18.31
20.39
23.86
26.08
25.05
20.05
12.06
3.16
-4.43
-8.56
-9.28
-7.42
-5.05
-3.17
-2.30
-1.42
1.64
8.48
19.85
33.69
46.56
54.37
54.99
48.81
38.31
26.15
13.61
0.92
-12.72
-26.98
-40.46
-51.29
-58.40
-62.40
-64.68
-66.74
-68.23
-68.14
-64.95
-58.28
-49.85
-41.34
-33.93
-26.78
-18.58
-8.15
4.04
16.16
26.51
33.87
38.62
41.71
44.14
46.45
48.85
51.41
54.79
58.64
61.06
58.19
46.24
24.06
-4.61
-32.41
-51.71
-57.82
-51.84
-38.72
-24.77
-13.22
-4.00
5.13
15.92
26.94
34.54
33.88
21.89
-1.58
-32.15
-62.28
-83.46
-88.30
-73.45
-41.13
0.31
39.31
65.75
74.21
65.53
45.41
21.65
0.82
-13.95
-22.94
-29.27
-35.53
-42.70
-49.93
-55.69
-58.90
-60.50
-62.29
-65.36
-69.31
-71.07
-67.04
-54.65
-34.15
-7.80
21.21
49.89
76.22
98.22
113.84
120.03
114.74
99.25
78.74
60.07
49.21
48.36
54.22
59.70
56.93
39.39
5.11
-43.32
-99.73
-154.81
-197.88
-219.41
-213.17
-178.67
-121.49
-51.42
19.39
79.02
118.62
134.25
126.95
103.24
72.03
42.81
23.48
16.73
20.39
28.64
34.21
30.50
13.93
-15.46
-54.13
-94.64
-127.34
-142.71
-134.43
-102.22
-52.70
1.94
48.10
76.22
84.11
76.99
64.48
55.15
52.19
53.80
55.77
54.64
50.40
46.12
45.10
49.08
56.96
66.07
74.15
80.90
86.76
91.81
94.86
93.73
86.47
73.19
56.59
39.81
25.94
16.61
11.77
10.63
11.83
13.00
9.70
-2.98
-28.88
-67.59
-112.83
-153.84
-179.52
-183.42
-166.32
-136.31
-104.80
-82.44
-74.31
-79.08
-90.14
-98.18
-95.52
-78.13
-46.64
-5.57
37.12
73.61
97.10
103.21
91.53
64.27
26.48
-14.74
-51.68
-78.19
-90.33
-88.28
-75.85
-57.71
-37.66
-16.56
7.44
36.62
70.33
104.55
132.91
149.40
152.30
144.25
132.23
123.12
121.19
126.44
136.15
146.08
151.90
150.48
137.87
111.44
70.21
17.48
-38.57
-86.36
-115.50
-121.90
-109.01
-87.08
-67.11
-56.76
-57.40
-63.80
-67.55
-62.74
-49.53
-34.02
-25.60
-32.49
-58.00
-98.57
-143.82
-179.67
-193.94
-181.58
-145.58
-94.53
-38.02
17.20
67.57
108.53
137.03
152.76
155.25
143.71
119.04
85.81
51.95
25.12
9.30
3.87
4.63
6.08
4.18
-1.95
-10.11
-17.38
-21.14
-20.75
-16.96
-11.53
-6.81
-4.39
-4.52
-6.01
-7.38
-7.63
-6.66
-4.81
-2.61
-0.67
0.74
1.92
3.38
5.33
7.50
9.24
10.13
10.22
10.02
10.27
11.76
14.80
18.86
22.89
25.79
27.00
26.46
25.01
23.55
22.91
24.04
27.21
32.02
37.30
40.58
38.38
27.70
7.14
-21.29
-52.80
-81.52
-101.86
-111.27
-110.99
-105.02
-98.71
-96.55
-99.58
-104.88
-107.14
-101.29
-84.80
-59.07
-27.89
4.33
34.42
60.11
78.53
85.61
76.95
51.20
13.24
-26.18
-54.46
-64.12
-55.95
-38.69
-24.21
-20.92
-30.58
-48.19
-66.25
-78.74
-82.37
-75.89
-58.24
-28.63
12.37
60.42
106.83
139.70
148.86
130.58
89.28
36.52
-13.51
-50.01
-68.71
-71.66
-65.70
-56.90
-48.18
-40.53
-33.83
-29.71
-30.82
-39.23
-53.66
-69.07
-78.45
-76.21
-61.71
-39.43
-17.06
-2.54
-0.15
-8.43
-22.19
-32.97
-33.33
-19.69
6.69
40.81
76.80
111.18
142.25
168.70
187.56
193.26
179.88
145.44
95.03
39.92
-6.15
-33.39
-39.50
-29.27
-11.53
4.83
14.20
14.76
7.30
-5.94
-22.21
-38.75
-52.71
-62.50
-69.62
-76.79
-86.95
-100.51
-114.56
-123.79
-123.73
-113.06
-94.29
-72.16
-51.10
-34.72
-26.14
-29.30
-47.85
-82.38
-127.77
-172.07
-199.72
-198.09
-164.17
-106.42
-40.44
18.26
60.63
85.86
99.34
106.76
111.25
112.34
108.04
98.08
85.77
77.33
79.34
95.44
123.96
158.08
187.80
203.65
200.70
181.89
155.78
133.27
123.40
130.03
150.92
180.24
211.27
238.00
257.74
269.20
272.29
267.74
257.20
242.79
226.63
209.49
184.35
146.47
94.05
30.97
-34.35
-92.41
-137.08
-167.23
-185.53
-195.11
-196.40
-188.36
-169.62
-142.24
-112.23
-85.01
-65.01
-51.97
-42.00
-29.23
-10.68
12.09
33.13
44.86
42.11
23.41
-10.24
-57.73
-118.61
-193.19
-277.79
-364.30
-441.10
-497.52
-522.70
-513.38
-476.23
-424.22
-376.97
-336.16
-293.81
-240.51
-170.79
-89.10
-5.27
69.06
125.78
160.69
179.50
190.72
202.27
218.17
239.99
272.04
319.77
387.83
472.56
568.13
662.64
742.03
792.01
786.94
717.62
594.78
466.67
359.13
284.63
237.78
209.98
188.01
158.37
113.68
52.28
-23.05
-109.60
-199.15
-280.94
-343.88
-381.72
-393.84
-383.32
-358.94
-332.85
-319.30
-325.18
-348.41
-379.39
-407.76
-426.03
-430.92
-425.40
-415.92
-410.47
-412.13
-419.09
-417.29
-396.43
-352.55
-289.31
-215.50
-139.80
-67.48
0.08
61.99
116.19
157.66
182.61
190.19
183.39
167.78
149.33
133.02
121.76
116.16
113.95
112.27
108.87
103.15
96.11
89.63
85.18
83.28
83.53
84.13
83.33
79.98
74.04
66.47
58.67
51.81
46.43
42.79
40.10
37.58
34.64
31.10
27.22
23.47
20.28
17.82
16.13
14.87
13.78
12.55
11.10
9.55
8.10
7.07
6.53
6.44
6.63
6.99
7.39
7.90
8.85
10.43
13.11
16.75
20.81
24.42
26.78
26.99
24.55
19.42
12.03
3.19
-6.39
-15.97
-24.86
-31.73
-35.36
-35.26
-31.59
-25.61
-19.18
-13.53
-8.36
-2.15
7.19
20.28
34.98
47.75
55.44
56.58
51.48
41.03
25.44
3.99
-23.69
-56.02
-88.50
-115.03
-129.90
-130.51
-116.91
-94.78
-69.84
-46.00
-25.01
-6.80
8.73
21.45
31.17
37.28
39.06
36.90
31.93
26.03
21.24
19.10
20.28
24.11
28.97
32.13
32.00
28.67
23.47
18.32
15.09
14.27
14.63
13.55
8.12
-2.69
-17.61
-33.88
-48.75
-59.39
-63.66
-59.77
-46.90
-26.53
-3.20
15.53
21.78
12.08
-9.61
-32.75
-44.70
-36.80
-9.17
29.76
67.62
92.88
99.60
88.18
64.12
34.85
8.52
-8.39
-12.01
-3.05
13.46
29.39
36.88
31.43
12.93
-13.55
-41.47
-63.70
-75.25
-73.92
-59.96
-35.39
-3.86
30.11
61.94
84.65
94.58
92.62
81.98
67.02
51.61
38.16
27.43
19.27
12.52
5.92
-1.67
-11.54
-24.24
-38.46
-50.78
-57.27
-55.30
-46.31
-35.50
-29.23
-31.94
-42.33
-54.06
-59.03
-52.19
-34.43
-12.12
6.83
17.18
18.32
13.75
8.12
4.37
2.86
1.92
-0.32
-4.27
-8.84
-12.30
-13.22
-11.66
-8.66
-6.21
-5.67
-7.47
-11.09
-15.16
-18.38
-20.05
-20.25
-19.91
-20.07
-21.55
-24.41
-28.51
-33.10
-37.62
-41.67
-44.59
-46.20
-45.94
-43.51
-38.61
-31.31
-22.63
-13.55
-5.54
0.90
5.68
9.52
13.45
18.25
24.19
30.74
37.36
43.68
50.25
57.99
67.75
80.20
94.64
109.22
121.47
129.25
129.60
120.63
101.04
71.53
35.48
-1.99
-33.97
-55.29
-63.89
-62.28
-57.10
-54.60
-58.11
-65.92
-72.76
-72.98
-63.59
-46.43
-26.32
-7.94
7.02
19.97
33.85
50.63
70.02
90.64
110.19
126.64
137.49
138.24
122.92
88.07
35.18
-27.40
-85.58
-125.33
-138.28
-124.97
-92.95
-53.37
-15.63
15.58
37.33
48.82
51.00
47.44
44.18
48.27
64.47
91.77
121.74
141.12
138.24
107.76
53.36
-13.22
-76.73
-123.76
-145.93
-141.49
-115.80
-78.97
-44.36
-24.85
-28.46
-56.33
-101.24
-150.34
-190.33
-211.46
-209.72
-187.01
-148.42
-100.11
-47.67
4.00
49.27
82.04
95.81
87.00
56.54
11.63
-35.30
-71.40
-86.50
-77.25
-47.63
-6.25
36.93
73.82
99.41
111.91
111.64
100.78
82.67
61.44
41.12
23.61
8.79
-4.11
-15.82
-25.17
-29.99
-28.16
-19.71
-6.09
10.24
26.90
42.18
54.19
59.76
55.57
40.03
14.52
-14.73
-40.01
-54.12
-54.01
-41.39
-20.57
3.14
26.53
48.23
67.74
83.72
94.00
96.28
90.44
79.38
68.05
61.74
64.01
75.75
94.27
114.48
130.65
137.48
131.70
112.84
82.98
44.71
0.32
-49.19
-102.85
-157.61
-207.68
-244.90
-262.20
-255.98
-229.37
-190.53
-149.91
-116.08
-92.39
-76.99
-64.22
-47.44
-21.87
12.44
51.16
86.83
111.59
120.71
113.54
93.12
64.27
30.74
-5.11
-40.71
-73.41
-99.07
-113.43
-114.77
-104.62
-87.59
-69.59
-54.75
-43.81
-35.26
-27.13
-18.69
-12.36
-11.02
-16.13
-25.25
-31.94
-28.30
-9.93
21.16
57.13
86.12
97.86
86.90
54.34
6.85
-45.55
-92.94
-127.03
-142.97
-140.37
-121.77
-92.43
-58.38
-25.39
1.67
18.05
19.78
4.90
-24.67
-61.54
-94.37
-111.29
-104.73
-74.25
-26.19
29.54
83.35
129.26
165.40
192.83
212.90
225.59
229.60
223.18
205.48
177.77
143.04
105.94
71.04
41.21
16.73
-4.69
-26.26
-50.22
-76.26
-101.28
-120.51
-130.11
-128.42
-116.68
-97.56
-73.88
-46.87
-15.76
20.72
61.99
103.88
138.92
159.58
161.82
146.34
118.75
85.89
53.32
23.89
-2.89
-28.21
-51.79
-71.76
-84.87
-87.80
-78.87
-57.87
-28.31
2.32
24.03
27.81
9.63
-27.79
-75.96
-124.40
-162.85
-185.40
-191.82
-184.64
-165.78
-134.31
-87.08
-21.89
58.33
147.44
234.96
309.42
363.86
398.71
421.81
444.77
476.01
498.68
494.39
451.02
370.25
267.40
162.52
72.03
4.39
-39.82
-65.89
-78.98
-83.82
-85.77
-90.26
-103.56
-130.01
-169.68
-216.86
-262.00
-293.37
-303.33
-292.24
-268.02
-242.31
-225.00
-220.95
-226.98
-234.79
-235.48
-223.39
-198.26
-164.06
-125.69
-86.48
-47.63
-10.04
23.83
50.73
68.03
74.44
71.05
61.04
48.22
35.96
25.94
18.39
12.48
7.97
5.01
4.64
7.90
15.02
24.97
35.64
44.75
50.53
52.85
52.77
52.23
52.35
53.17
53.28
51.13
45.78
37.19
26.71
16.14
7.88
4.08
6.16
13.94
25.06
33.90
33.11
16.56
-17.15
-61.71
-104.55
-131.78
-136.17
-116.70
-80.27
-38.33
-1.74
23.00
34.68
36.44
32.97
27.98
24.72
23.94
24.14
23.64
21.38
17.29
12.22
7.21
2.33
-3.11
-10.08
-19.28
-29.64
-38.68
-43.79
-43.57
-38.00
-29.02
-19.25
-11.11
-6.41
-4.80
-4.63
-4.17
-1.57
4.33
13.29
24.06
34.27
41.10
42.37
37.63
27.72
15.16
3.58
-4.25
-6.93
-4.75
0.54
5.77
7.73
4.02
-6.13
-21.11
-37.58
-51.19
-58.75
-59.48
-55.11
-49.02
-44.84
-45.53
-51.97
-62.43
-72.45
-76.56
-70.47
-52.99
-27.05
-0.29
18.56
22.65
11.50
-8.12
-25.33
-30.52
-19.19
5.66
36.11
63.94
83.44
93.87
98.61
103.14
110.75
121.77
134.45
146.67
157.84
168.67
179.39
187.85
189.25
177.49
147.37
97.73
31.80
-42.87
-115.83
-176.64
-216.44
-231.16
-222.09
-195.98
-161.55
-127.38
-97.58
-70.99
-43.37
-10.97
25.46
59.39
81.23
83.71
65.79
35.28
4.81
-13.68
-14.07
1.86
27.06
54.03
78.23
97.82
111.50
116.52
108.07
83.54
45.88
3.79
-31.38
-51.85
-57.27
-54.34
-52.21
-57.80
-71.36
-88.55
-103.62
-112.11
-111.85
-102.46
-83.79
-57.12
-26.76
-0.29
13.05
7.74
-14.74
-45.21
-70.69
-81.23
-74.69
-57.68
-41.20
-34.40
-40.22
-54.70
-69.97
-78.65
-76.53
-63.43
-41.79
-14.49
16.21
48.15
78.91
105.06
123.30
130.87
126.68
112.13
91.51
70.54
55.19
48.82
51.21
57.94
63.02
62.39
56.60
49.98
47.70
51.37
57.72
59.92
51.34
31.11
5.13
-16.67
-26.50
-23.11
-12.21
-3.29
-3.13
-12.15
-24.35
-32.07
-31.63
-26.13
-22.44
-25.84
-36.01
-46.58
-49.67
-41.09
-24.12
-7.39
1.31
-1.09
-9.99
-17.78
-19.39
-15.86
-13.71
-20.32
-38.37
-63.41
-86.34
-97.65
-93.11
-75.34
-52.35
-32.83
-22.50
-22.23
-28.00
-33.81
-35.17
-30.51
-21.35
-10.90
-0.99
7.72
15.49
21.49
22.84
16.95
2.40
-18.79
-40.50
-53.89
-51.97
-33.52
-4.87
23.07
40.06
42.10
32.98
21.55
18.58
31.53
62.34
107.87
162.48
221.82
283.45
345.61
394.45
416.07
400.98
350.39
276.08
193.13
114.28
46.59
-7.80
-50.10
-81.58
-103.53
-117.05
-123.66
-125.51
-124.26
-121.41
-117.90
-114.86
-111.87
-108.17
-103.29
-97.14
-90.36
-83.67
-77.68
-72.71
-69.00
-65.89
-62.56
-58.35
-53.14
-47.45
-41.96
-37.28
-33.72
-31.37
-29.71
-28.04
-25.82
-22.85
-19.43
-16.05
-13.20
-11.20
-10.05
-9.41
-8.77
-7.69
-5.99
-3.79
-1.46
0.54
1.80
2.20
1.83
1.06
0.34
0.11
0.58
1.53
2.58
2.77
1.56
-1.66
-6.68
-12.69
-18.35
-21.97
-22.66
-20.73
-18.56
-19.24
-25.21
-36.76
-50.92
-62.76
-67.17
-60.92
-44.34
-21.14
4.04
27.66
47.80
64.10
75.63
80.71
76.42
60.20
31.23
-8.56
-54.88
-102.96
-147.46
-183.49
-204.99
-206.57
-183.30
-133.76
-62.69
19.49
98.68
162.66
204.31
224.21
228.51
225.05
218.76
209.40
191.67
158.69
106.59
36.94
-41.45
-114.32
-166.24
-185.99
-171.00
-127.84
-69.95
-12.34
33.46
62.88
78.14
84.88
88.30
90.84
92.81
92.92
90.60
86.50
81.06
73.33
59.92
37.19
3.51
-38.36
-81.79
-118.01
-139.86
-144.78
-135.64
-118.94
-101.51
-88.58
-81.98
-80.92
-82.81
-84.76
-84.43
-80.10
-70.61
-55.97
-36.81
-13.51
12.85
41.89
73.64
108.30
145.75
184.56
221.52
251.85
270.18
272.00
256.05
224.81
184.24
142.30
105.79
78.85
62.24
54.58
53.62
58.04
67.45
81.16
97.17
112.33
123.50
129.64
132.16
132.71
130.98
122.14
97.99
51.68
-19.28
-110.54
-212.29
-313.18
-403.28
-475.23
-524.49
-548.38
-546.18
-520.90
-479.91
-433.55
-391.99
-361.00
-339.32
-319.68
-292.57
-249.61
-186.79
-105.61
-12.88
80.77
162.83
222.35
252.47
252.64
228.49
188.65
141.19
91.01
39.36
-12.54
-60.98
-99.22
-119.37
-117.56
-97.32
-69.06
-46.36
-40.03
-53.96
-84.50
-123.91
-163.63
-196.32
-216.75
-220.20
-201.88
-158.65
-91.05
-4.06
93.00
188.20
270.66
332.65
370.86
386.27
382.83
365.92
340.52
310.74
279.88
250.13
223.39
201.61
185.77
174.83
165.73
154.16
135.81
107.88
69.71
22.73
-28.90
-78.60
-117.84
-138.80
-137.34
-115.45
-81.40
-46.39
-20.42
-8.90
-11.08
-21.73
-34.47
-44.79
-51.72
-56.82
-62.29
-68.40
-72.56
-70.08
-56.80
-31.27
3.41
40.82
74.26
99.35
116.28
129.36
143.31
159.59
174.40
180.88
173.27
150.70
118.80
86.15
59.65
41.78
30.22
20.27
9.07
-3.53
-15.52
-24.80
-31.04
-35.09
-37.62
-37.06
-30.24
-14.34
10.44
40.66
70.67
95.71
113.55
124.46
129.45
128.20
118.70
98.26
65.12
20.32
-32.30
-87.14
-138.35
-181.70
-215.20
-239.05
-254.96
-265.01
-270.95
-274.67
-278.01
-283.18
-292.19
-306.12
-324.89
-346.58
-367.89
-384.53
-392.36
-388.23
-370.59
-339.53
-296.54
-243.94
-184.37
-120.48
-54.61
11.07
74.62
134.19
188.11
234.96
273.87
304.45
326.79
341.37
348.72
349.44
344.20
333.69
318.70
300.09
278.81
255.78
231.86
207.75
184.01
161.05
139.16
118.57
99.43
81.89
66.03
51.86
39.35
28.48
19.14
11.26
4.73
-0.57
-4.71
-7.79
-9.92
-11.23
-11.78
-11.66
-10.93
-9.64
-7.84
-5.49
-2.53
1.09
5.31
10.07
15.31
20.84
26.32
31.16
34.93
37.29
37.71
35.83
31.42
24.47
15.09
3.70
-9.55
-24.38
-40.36
-57.08
-74.01
-90.44
-105.42
-117.77
-126.14
-129.40
-126.45
-116.76
-100.47
-78.34
-52.01
-23.73
3.84
28.22
47.03
58.45
61.47
56.12
43.64
26.07
6.30
-12.51
-27.38
-36.02
-37.13
-30.74
-18.17
-0.88
19.10
39.69
59.43
77.10
91.90
103.29
110.79
113.98
113.14
108.82
102.37
95.34
89.18
84.91
82.65
81.61
80.59
78.50
74.66
68.98
61.87
53.97
45.28
36.76
27.80
16.94
2.35
-17.88
-45.18
-79.45
-118.68
-158.37
-192.55
-216.01
-226.11
-224.19
-215.25
-206.10
-202.56
-207.63
-221.12
-240.10
-259.50
-273.51
-276.56
-264.72
-236.73
-194.38
-141.69
-84.01
-27.08
23.55
63.22
89.00
100.02
97.85
85.66
67.00
44.59
20.09
-5.64
-32.00
-57.46
-79.72
-96.34
-104.91
-102.93
-88.22
-59.35
-17.54
32.41
82.60
124.02
149.12
154.26
140.25
111.88
75.88
38.68
5.54
-20.16
-36.41
-42.74
-40.01
-31.51
-22.56
-19.10
-25.54
-42.64
-66.22
-87.93
-98.27
-90.02
-62.00
-19.77
26.15
63.55
82.81
79.66
55.56
17.77
-22.98
-54.68
-66.39
-50.35
-4.08
67.62
152.36
232.11
289.14
312.09
300.25
263.38
217.47
177.63
153.49
147.23
155.02
169.99
184.65
192.41
187.66
166.57
128.13
75.53
16.04
-40.58
-84.49
-109.96
-116.76
-109.57
-96.42
-85.52
-82.86
-90.87
-109.09
-134.08
-161.05
-184.49
-198.14
-196.80
-178.95
-148.02
-112.47
-83.08
-67.81
-69.34
-83.99
-103.42
-116.69
-115.95
-98.46
-67.06
-31.13
3.34
33.74
59.40
80.04
93.88
98.43
91.83
73.89
47.07
15.93
-14.76
-41.30
-61.80
-76.47
-86.75
-94.30
-100.29
-104.84
-106.81
-105.10
-99.18
-87.73
-70.67
-48.63
-22.91
4.87
33.25
61.77
89.67
116.11
139.52
158.25
171.08
177.51
178.08
173.82
166.39
156.73
146.90
135.54
121.22
103.34
82.31
59.99
38.75
21.43
9.86
4.61
5.37
11.37
21.53
35.34
52.48
72.25
94.01
115.60
134.64
147.05
149.69
141.82
125.69
105.78
86.42
72.81
66.34
65.61
66.97
66.55
61.55
50.60
33.74
11.34
-12.67
-33.24
-45.82
-48.44
-43.40
-37.59
-40.22
-58.70
-96.18
-144.97
-194.80
-234.85
-258.67
-265.98
-261.96
-253.47
-234.84
-219.35
-199.23
-167.02
-117.85
-53.30
17.06
77.88
113.64
114.76
79.38
17.60
-57.90
-134.74
-204.72
-263.61
-309.61
-341.43
-357.48
-358.10
-343.11
-316.50
-284.35
-252.84
-225.71
-203.00
-182.46
-160.91
-138.28
-116.11
-99.63
-94.17
-101.32
-117.28
-134.29
-144.02
-141.92
-128.93
-108.55
-84.98
-59.89
-32.80
-3.18
26.38
49.95
61.40
58.00
43.56
27.07
18.43
23.55
41.56
65.89
89.29
106.93
117.91
123.71
125.83
124.20
118.85
111.98
108.67
115.06
134.32
163.87
195.95
221.18
233.81
234.01
227.62
222.25
223.88
234.53
252.17
272.53
290.11
299.56
297.58
283.31
259.47
231.65
206.00
185.88
170.53
155.33
136.03
112.04
87.70
70.15
64.33
69.35
78.53
82.73
74.76
53.50
23.42
-8.07
-34.17
-51.13
-58.21
-56.16
-45.27
-25.65
2.34
37.11
74.89
110.08
136.58
148.49
142.10
116.57
74.38
20.19
-39.46
-97.15
-145.34
-176.95
-186.77
-173.11
-139.03
-91.68
-40.44
6.25
43.53
70.66
88.63
97.32
94.11
74.50
36.43
-16.85
-75.76
-127.16
-158.83
-164.28
-144.63
-106.92
-60.63
-14.23
25.95
55.39
70.82
71.01
58.65
40.92
27.57
27.33
42.45
67.02
89.48
98.16
86.77
56.62
15.37
-27.23
-64.23
-93.28
-115.83
-134.57
-150.38
-162.29
-168.39
-167.71
-161.83
-153.99
-146.87
-141.21
-135.15
-125.95
-112.69
-97.87
-86.92
-86.95
-103.35
-137.04
-184.72
-238.70
-289.61
-327.77
-345.79
-340.77
-315.68
-278.80
-240.22
-208.82
-187.90
-174.72
-163.53
-148.60
-127.81
-102.95
-78.78
-60.54
-51.36
-50.79
-55.40
-60.43
-61.80
-58.34
-52.35
-48.50
-51.39
-63.08
-80.74
-98.06
-107.55
-102.96
-82.25
-47.74
-5.19
38.44
77.16
107.67
129.85
146.34
161.25
177.74
196.71
216.96
236.25
253.15
267.31
279.65
291.50
302.78
311.81
315.86
312.38
300.82
282.60
261.22
240.97
225.28
216.02
212.50
212.82
214.58
215.71
215.01
211.35
202.95
186.80
159.99
121.68
75.04
27.26
-12.84
-38.86
-49.81
-49.99
-46.03
-41.95
-36.37
-23.64
1.70
39.82
83.88
121.89
142.72
141.30
120.70
90.13
59.93
37.88
26.82
25.19
28.75
33.15
34.58
30.10
18.25
-0.85
-24.46
-48.35
-67.58
-77.66
-76.21
-63.77
-44.38
-24.46
-10.31
-3.71
-2.13
0.86
11.06
30.18
53.34
70.95
74.00
59.28
35.35
16.76
16.78
40.15
80.87
125.66
161.07
179.72
182.49
182.00
191.99
221.00
268.41
325.82
381.58
425.05
448.93
450.55
437.47
419.50
405.09
397.91
397.77
403.10
412.39
424.74
404.38
330.77
203.48
44.39
-117.31
-261.07
-378.27
-468.23
-532.94
-575.32
-593.38
-588.57
-565.06
-530.49
-493.85
-461.84
-437.78
-421.97
-411.22
-398.54
-378.03
-346.80
-306.41
-261.47
-217.57
-179.57
-150.88
-131.89
-119.54
-111.86
-108.19
-109.65
-116.79
-126.74
-133.39
-129.01
-107.45
-66.23
-9.00
53.49
106.34
136.51
137.00
108.41
57.49
-5.81
-69.89
-122.98
-153.31
-150.76
-110.37
-35.84
58.44
150.05
214.64
234.88
206.90
141.12
57.38
-23.76
-86.50
-123.64
-135.42
-126.68
-104.33
-76.04
-49.95
-32.74
-28.56
-36.35
-50.47
-62.85
-67.87
-64.93
-58.76
-55.87
-60.33
-70.23
-78.21
-76.47
-61.48
-36.75
-12.01
2.04
-1.29
-20.59
-47.36
-69.41
-76.19
-62.36
-29.11
16.47
63.75
101.47
120.18
114.99
87.82
47.44
6.53
-22.10
-30.76
-19.03
6.90
37.83
65.20
83.28
89.13
81.93
61.01
26.90
-16.77
-62.60
-99.90
-117.86
-109.43
-74.54
-21.37
36.11
82.23
104.85
99.33
69.40
25.41
-19.26
-52.64
-67.46
-63.02
-44.63
-21.16
-1.16
10.29
13.92
15.09
20.21
32.90
51.26
68.42
75.77
67.89
46.02
18.07
-5.70
-17.48
-15.65
-4.64
8.07
16.23
17.99
15.17
11.73
9.74
8.30
5.13
-1.64
-10.60
-17.74
-18.81
-12.61
-1.91
8.57
15.01
17.72
19.46
23.35
29.54
34.15
31.67
19.15
-0.75
-20.96
-33.04
-31.94
-17.78
4.03
25.54
39.46
41.79
32.85
16.59
-0.21
-11.02
-11.15
-0.28
17.42
35.37
46.70
47.21
36.59
18.18
-2.77
-20.37
-29.77
-28.12
-15.09
6.26
30.46
50.94
62.10
60.58
46.55
23.74
-2.55
-27.05
-46.27
-58.64
-63.44
-60.30
-49.89
-34.07
-16.14
-0.32
10.08
13.69
11.50
6.53
1.42
-2.19
-3.97
-3.64
-0.23
6.51
14.67
20.03
17.30
2.90
-21.92
-51.38
-77.49
-93.90
-97.70
-89.95
-74.19
-53.96
-32.50
-12.25
4.01
13.39
13.56
3.41
-16.47
-43.86
-75.21
-105.86
-130.92
-145.96
-149.61
-143.95
-134.52
-128.24
-130.65
-143.63
-164.53
-187.82
-207.73
-220.76
-225.95
-224.54
-218.62
-211.08
-204.63
-201.75
-203.14
-207.11
-209.64
-205.48
-190.66
-164.35
-129.72
-92.17
-56.83
-26.25
0.32
25.46
51.54
80.06
111.29
145.42
181.89
218.24
250.33
272.28
279.60
272.26
255.72
239.58
232.92
239.73
256.56
274.75
284.70
279.66
257.94
222.06
177.14
129.70
86.51
53.81
36.31
35.19
47.17
65.37
81.42
89.25
87.50
79.78
72.05
68.42
68.87
70.05
67.38
58.21
44.19
29.72
19.60
15.56
15.82
17.09
17.20
17.01
17.61
18.48
15.66
3.03
-23.54
-62.17
-104.44
-138.59
-154.80
-149.94
-127.81
-96.68
-64.94
-37.62
-15.99
1.09
14.36
24.13
30.63
35.50
41.89
53.92
73.97
100.71
128.87
150.62
159.65
153.29
132.41
99.88
57.73
7.35
-49.46
-107.03
-155.45
-182.88
-180.70
-148.89
-96.86
-39.79
8.32
40.30
57.36
66.00
72.46
78.86
81.87
75.88
57.47
29.20
-0.80
-20.68
-20.80
1.88
41.64
85.24
117.05
125.49
107.16
67.93
19.45
-26.08
-60.72
-81.53
-89.15
-85.45
-72.25
-52.28
-30.04
-11.68
-2.18
-1.81
-5.11
-3.01
12.02
40.62
74.42
100.14
106.04
87.71
49.93
4.73
-35.07
-60.57
-69.16
-64.23
-51.57
-37.36
-26.94
-24.18
-30.46
-44.15
-60.22
-70.97
-69.76
-53.82
-25.81
6.68
34.56
50.04
49.49
32.95
4.02
-31.93
-68.26
-97.07
-110.17
-101.86
-71.59
-25.83
23.41
63.14
83.82
83.31
66.79
42.91
20.62
5.76
0.69
4.73
15.32
28.05
36.52
33.60
14.20
-21.09
-65.33
-107.13
-134.98
-142.40
-130.02
-104.42
-74.37
-47.24
-26.61
-12.67
-4.75
-1.60
-1.65
-3.22
-3.72
-1.80
1.60
2.88
-2.71
-17.72
-40.50
-65.48
-85.45
-94.03
-88.28
-68.75
-38.11
0.09
42.46
84.67
120.43
142.55
144.90
125.70
89.98
48.83
15.46
0.99
8.78
33.24
62.01
81.24
81.27
61.13
28.47
-4.23
-24.75
-25.97
-8.06
22.39
54.61
77.50
82.63
66.61
32.34
-11.02
-50.33
-72.88
-70.53
-44.20
-4.37
33.19
53.45
49.33
23.75
-12.02
-44.38
-63.40
-66.03
-54.86
-35.52
-14.00
5.04
17.78
20.74
10.80
-12.94
-48.24
-89.41
-128.56
-157.68
-171.04
-166.79
-147.12
-118.33
-88.84
-66.68
-55.89
-54.78
-56.98
-53.66
-37.88
-7.00
37.15
89.23
142.31
188.97
221.94
234.25
220.81
180.80
119.88
49.96
-12.92
-53.16
-60.75
-34.53
15.88
73.42
118.23
133.69
111.90
57.41
-14.18
-81.37
-124.39
-132.93
-108.61
-62.90
-12.20
28.42
49.72
51.00
38.38
21.84
11.60
15.75
39.35
81.38
134.00
184.56
220.35
233.29
223.41
197.50
166.32
141.97
131.34
134.20
144.75
156.22
164.72
170.22
174.89
166.74
139.39
92.89
32.98
-33.18
-99.07
-159.33
-209.23
-245.68
-267.41
-273.70
-265.84
-247.11
-223.09
-199.80
-182.89
-175.73
-179.20
-190.61
-201.71
-202.79
-186.72
-152.37
-104.58
-52.30
-2.62
37.81
63.99
75.38
75.48
70.30
65.83
62.92
60.37
53.66
37.72
11.83
-17.16
-38.04
-42.08
-29.32
-9.45
2.69
-5.50
-38.39
-90.16
-147.33
-194.83
-220.51
-218.43
-188.93
-138.03
-76.14
-15.54
33.12
63.87
76.39
75.68
68.78
61.65
56.95
53.88
48.98
37.69
16.28
-16.83
-59.13
-103.77
-140.33
-157.89
-148.52
-110.89
-51.87
15.44
75.06
114.10
127.07
117.96
97.94
80.08
73.55
78.86
89.29
94.41
85.98
61.12
22.85
-22.04
-66.69
-105.66
-134.89
-150.05
-147.39
-124.03
-80.26
-19.83
51.04
124.42
192.68
249.31
290.29
312.48
314.41
295.57
257.47
204.75
144.93
87.20
40.20
10.20
-6.04
-14.01
-22.81
-40.16
-67.24
-97.70
-120.38
-132.03
-133.08
-130.43
-133.84
-151.48
-186.23
-234.28
-286.94
-333.13
-359.82
-356.20
-317.39
-245.70
-151.10
-48.84
43.52
109.69
138.86
128.89
88.17
32.81
-16.94
-43.20
-35.41
7.28
76.97
160.59
243.36
311.96
355.93
369.27
352.18
310.74
255.84
199.39
150.42
112.35
82.92
57.08
31.06
5.04
-17.38
-31.27
-33.72
-25.84
-12.53
-0.57
4.70
0.50
-12.43
-30.84
-50.59
-69.50
-88.65
-111.62
-142.44
-182.26
-227.89
-271.80
-304.93
-320.29
-315.14
-292.48
-257.24
-213.36
-160.81
-96.77
-18.53
72.57
169.28
260.22
333.62
381.41
401.58
397.76
376.53
345.15
309.72
273.88
240.08
209.60
182.52
157.48
132.42
104.54
71.32
32.26
-9.90
-48.72
-75.40
-82.43
-67.36
-35.75
0.41
26.51
30.84
8.36
-37.70
-97.61
-158.05
-205.67
-230.01
-225.56
-193.40
-141.81
-84.60
-36.75
-9.22
-4.88
-17.98
-36.95
-50.02
-49.50
-33.93
-8.44
18.20
36.83
40.46
25.97
-4.56
-44.18
-82.80
-109.88
-117.78
-105.21
-77.72
-45.22
-18.78
-6.16
-9.41
-25.24
-46.65
-66.22
-78.17
-79.24
-68.47
-46.82
-17.24
14.77
41.12
52.69
42.48
9.78
-38.35
-88.69
-125.92
-138.66
-123.64
-86.27
-37.36
10.74
48.49
70.33
73.69
58.20
25.21
-20.92
-71.84
-115.54
-139.83
-136.32
-104.21
-50.45
13.75
75.15
122.73
148.12
146.65
117.59
65.00
-1.74
-68.79
-120.60
-145.42
-139.58
-108.64
-64.88
-21.81
10.87
30.14
39.50
46.38
58.47
80.96
114.65
155.05
194.19
221.90
228.52
208.37
161.62
95.04
21.35
-44.67
-90.55
-109.41
-102.72
-79.46
-53.31
-37.73
-41.79
-66.71
-105.86
-147.63
-179.75
-193.16
-184.06
-154.28
-109.29
-56.99
-6.41
32.48
50.94
44.08
13.91
-29.21
-68.33
-85.58
-68.82
-17.06
58.34
137.75
199.97
229.32
220.69
180.58
124.50
71.50
38.66
34.59
56.47
91.22
121.01
130.53
112.97
71.60
16.53
-40.29
-88.69
-122.74
-139.89
-139.82
-124.22
-97.66
-67.82
-44.51
-37.01
-51.19
-87.31
-139.89
-198.93
-252.72
-290.03
-302.29
-284.84
-237.51
-164.98
-75.71
19.53
108.68
180.60
227.72
248.30
247.56
237.29
230.86
238.25
260.80
290.20
310.92
307.55
271.19
202.53
111.65
13.97
-74.67
-142.52
-183.36
-196.86
-187.86
-164.69
-137.33
-114.45
-101.89
-100.33
-105.47
-110.22
-107.49
-93.63
-70.42
-43.85
-22.05
-12.16
-17.04
-34.47
-57.59
-76.64
-82.38
-68.89
-35.99
10.93
62.03
107.60
141.02
161.46
172.27
178.02
182.02
183.66
179.55
166.87
145.90
119.09
89.50
57.78
21.88
-20.74
-69.64
-119.03
-159.49
-181.97
-182.39
-162.83
-130.05
-92.65
-57.00
-26.91
-3.87
10.18
12.45
-0.39
-29.48
-70.86
-116.19
-154.09
-174.93
-173.32
-149.89
-110.61
-64.77
-22.19
8.80
22.77
19.58
3.90
-15.85
-30.60
-33.77
-23.99
-5.30
16.15
35.79
52.43
68.15
85.20
104.24
123.15
138.74
147.83
148.83
141.55
126.66
105.80
81.70
58.21
39.16
26.22
18.47
13.47
8.74
4.14
1.29
1.26
2.50
0.08
-11.96
-36.01
-68.68
-101.17
-122.11
-123.21
-102.42
-64.18
-17.61
27.48
63.87
87.09
96.47
93.95
83.32
69.89
58.96
54.61
58.24
68.18
79.32
84.88
79.34
60.02
28.85
-7.70
-40.78
-61.39
-63.86
-48.37
-21.20
6.29
21.32
15.14
-13.10
-56.00
-100.29
-133.60
-149.57
-149.48
-140.06
-128.21
-115.81
-100.11
-76.58
-43.89
-7.33
23.46
39.91
38.87
24.00
3.44
-15.54
-29.81
-40.77
-52.06
-66.24
-83.58
-103.01
-123.52
-145.48
-169.26
-192.39
-208.30
-207.28
-180.21
-123.93
-44.58
44.56
127.39
191.60
232.88
254.53
263.37
265.81
264.60
259.24
249.00
234.79
218.35
201.04
181.58
156.44
123.10
83.30
44.12
15.75
6.60
19.05
48.59
85.87
119.93
141.59
144.90
127.60
91.65
43.40
-6.55
-45.40
-62.95
-55.94
-30.03
2.15
27.34
37.08
30.40
13.32
-6.17
-22.76
-36.28
-50.42
-69.76
-96.48
-129.43
-164.39
-195.51
-217.23
-225.18
-217.95
-197.23
-167.63
-135.82
-107.66
-86.76
-72.81
-63.09
-54.91
-47.66
-43.35
-45.66
-57.12
-77.59
-104.09
-132.72
-159.71
-181.89
-195.84
-198.21
-186.92
-162.41
-128.87
-93.06
-62.00
-39.47
-25.12
-15.84
-8.04
-0.08
7.57
15.06
25.60
44.70
78.60
130.03
195.83
266.90
331.09
378.06
402.37
404.15
387.63
359.46
326.16
293.41
266.60
248.71
239.81
235.64
227.96
208.17
171.12
118.80
60.08
7.31
-30.24
-49.92
-57.38
-63.05
-76.38
-100.74
-132.54
-164.61
-190.24
-207.55
-219.01
-229.37
-242.19
-257.51
-272.47
-283.39
-287.62
-285.01
-277.96
-268.75
-258.39
-245.48
-226.46
-197.85
-158.37
-109.96
-57.05
-5.55
39.20
73.86
98.27
114.88
126.69
136.12
143.73
148.35
147.56
140.38
127.54
112.17
98.37
88.54
82.69
78.10
71.34
61.14
48.77
35.79
22.53
5.51
-20.54
-57.82
-102.65
-144.65
-171.92
-177.40
-163.58
-141.01
-122.40
-114.95
-115.72
-114.20
-98.54
-62.92
-11.12
45.49
94.45
128.84
148.58
159.39
167.45
175.45
181.25
179.81
166.04
137.36
93.95
38.97
-22.66
-85.18
-141.63
-185.27
-211.47
-219.05
-211.38
-194.04
-172.42
-148.60
-121.60
-88.83
-50.31
-10.65
22.32
40.71
41.58
29.13
12.48
0.96
0.31
11.36
31.63
58.00
88.66
122.60
157.77
189.52
210.48
212.95
191.66
147.00
85.72
19.16
-39.76
-79.82
-95.35
-88.09
-66.51
-42.82
-28.36
-29.10
-43.27
-62.69
-76.47
-75.73
-57.05
-23.53
16.38
53.06
79.15
91.49
91.53
83.52
72.14
60.63
51.25
46.27
49.26
64.18
92.78
131.77
170.89
195.43
192.10
154.90
89.15
10.38
-61.20
-108.93
-124.85
-111.06
-76.86
-33.36
10.44
47.49
72.69
82.24
74.46
52.44
24.39
1.81
-5.09
7.64
35.45
67.19
90.40
96.32
82.82
54.49
18.88
-16.18
-44.78
-63.08
-68.66
-60.59
-40.39
-12.00
17.97
41.81
52.94
48.22
29.07
1.80
-25.13
-43.69
-48.85
-40.68
-23.22
-2.55
15.98
29.40
37.10
39.26
35.25
22.70
-1.69
-39.89
-90.00
-144.76
-193.39
-224.05
-229.14
-208.00
-167.41
-118.99
-74.03
-38.84
-13.79
6.12
26.83
51.81
79.39
104.15
119.63
121.83
111.56
93.56
74.56
60.04
52.18
49.10
46.85
41.12
29.96
15.21
1.12
-8.26
-11.74
-12.22
-15.20
-25.65
-45.68
-73.71
-105.66
-136.82
-163.14
-180.96
-187.22
-179.66
-158.53
-126.87
-90.02
-53.21
-19.49
10.63
38.26
62.29
79.12
83.46
72.52
48.99
21.51
0.79
-4.12
10.12
40.63
80.42
120.70
152.88
170.04
168.77
150.57
122.24
94.08
75.85
72.44
82.14
97.89
111.23
116.09
110.52
95.91
74.45
48.26
19.73
-6.62
-25.14
-31.02
-23.83
-9.39
1.66
-0.94
-21.16
-53.25
-84.20
-99.43
-91.31
-63.41
-28.60
-2.54
4.24
-10.03
-39.21
-74.66
-110.04
-142.58
-171.86
-196.71
-214.85
-224.18
-224.31
-217.85
-209.22
-201.62
-195.54
-188.75
-179.05
-166.30
-153.89
-147.71
-152.51
-168.86
-191.65
-210.92
-214.90
-194.15
-146.41
-78.21
-2.96
63.80
110.61
133.70
136.72
126.53
109.54
90.73
73.46
62.55
64.20
84.06
123.74
178.33
237.30
288.15
322.17
337.56
339.41
335.92
334.24
337.82
346.27
355.69
359.85
352.65
329.69
289.26
233.33
167.37
98.16
32.19
-25.16
-70.28
-101.77
-119.91
-126.89
-127.24
-126.39
-128.51
-135.28
-145.00
-154.38
-161.23
-165.71
-170.21
-177.94
-190.13
-205.40
-220.63
-231.26
-233.71
-226.41
-208.63
-180.44
-144.94
-107.36
-74.97
-54.64
-50.55
-63.07
-89.37
-121.55
-148.45
-159.75
-146.38
-104.11
-35.34
52.16
144.84
225.85
282.16
308.21
304.70
279.53
243.10
197.73
148.55
109.05
81.25
58.22
43.47
37.02
42.85
63.91
99.34
144.51
190.78
227.43
248.25
254.28
241.30
211.07
166.62
109.06
37.43
-48.24
-142.45
-230.85
-294.92
-321.78
-307.38
-259.96
-196.21
-133.50
-83.99
-52.54
-36.53
-29.34
-26.36
-24.32
-23.54
-25.53
-30.53
-36.72
-41.22
-41.42
-36.56
-28.81
-20.87
-15.68
-14.85
-17.71
-22.04
-25.32
-25.85
-23.39
-19.49
-16.01
-14.66
-16.15
-20.05
-25.07
-29.69
-32.91
-34.50
-35.13
-35.66
-36.96
-39.54
-43.46
-48.45
-53.94
-59.37
-64.19
-68.21
-71.26
-73.70
-76.04
-78.65
-81.68
-84.62
-86.70
-85.82
-79.85
-67.25
-47.52
-21.70
8.20
39.61
70.37
98.93
124.78
148.00
168.87
187.66
203.71
215.60
221.25
218.52
205.95
183.44
152.74
116.57
81.00
51.37
30.89
19.23
12.36
4.94
-6.74
-22.41
-37.48
-45.02
-40.05
-22.29
2.96
27.38
42.65
43.73
30.53
6.62
-21.58
-48.69
-70.09
-82.44
-84.14
-75.31
-59.47
-41.58
-26.19
-15.46
-8.96
-4.16
1.12
6.55
9.15
3.77
-13.35
-42.64
-79.87
-117.47
-146.14
-158.73
-152.44
-128.56
-93.79
-55.87
-22.22
3.91
21.90
33.21
40.61
47.21
55.75
67.01
79.62
89.90
93.80
88.65
74.23
52.62
27.29
1.07
-23.90
-45.40
-60.72
-67.69
-64.97
-53.44
-37.01
-21.13
-10.55
-7.30
-9.87
-14.30
-15.83
-11.17
-0.11
15.25
31.39
44.64
52.55
54.98
53.48
49.98
45.97
41.35
35.49
27.58
17.33
5.05
-8.31
-21.71
-33.33
-40.89
-41.86
-34.36
-17.81
6.71
36.28
67.21
95.93
119.36
135.60
144.44
147.52
147.45
147.50
149.93
153.70
154.76
147.37
126.68
91.14
43.50
-10.67
-65.69
-117.09
-162.37
-199.11
-224.56
-235.43
-230.41
-211.49
-185.11
-159.98
-143.06
-136.36
-135.25
-130.96
-115.57
-86.59
-49.37
-13.96
9.51
15.73
6.09
-13.01
-33.42
-48.38
-53.48
-46.83
-28.28
0.00
33.21
63.17
80.15
76.04
48.23
0.98
-55.80
-109.91
-151.23
-174.72
-180.88
-173.20
-156.33
-133.95
-107.73
-78.25
-45.42
-9.68
28.29
67.82
107.96
146.63
179.89
201.83
206.14
189.66
154.54
108.96
64.32
30.85
13.28
9.33
12.26
14.76
12.94
7.65
3.14
4.22
14.04
32.68
58.69
89.27
120.45
147.58
165.26
168.77
156.87
132.31
102.26
74.84
55.44
44.24
35.74
21.86
-3.86
-42.65
-90.16
-137.78
-175.47
-194.89
-190.66
-161.15
-109.51
-43.72
23.27
76.43
102.01
92.83
50.66
-13.13
-80.48
-133.23
-157.52
-148.69
-111.73
-58.70
-4.37
38.49
62.93
68.14
58.47
40.31
18.86
-1.81
-18.65
-28.52
-27.37
-12.21
17.33
56.70
97.48
129.39
144.43
139.99
118.66
87.63
54.64
25.93
4.05
-11.80
-24.33
-35.95
-47.17
-56.99
-62.81
-62.80
-56.94
-46.28
-32.45
-17.05
-1.16
13.34
23.44
25.18
14.57
-9.82
-44.84
-82.26
-111.18
-122.60
-113.49
-88.54
-57.77
-32.05
-17.66
-13.37
-12.35
-6.78
8.09
30.97
55.71
74.57
82.04
77.03
62.75
44.33
27.16
15.89
13.03
19.15
32.87
50.37
66.79
76.75
76.24
63.85
41.36
13.67
-13.23
-33.73
-44.25
-44.33
-36.25
-24.50
-13.31
-5.88
-3.48
-5.36
-9.20
-13.08
-15.10
-14.73
-12.12
-7.51
-1.20
6.17
13.91
20.21
22.32
18.39
8.15
-5.30
-16.32
-19.35
-11.75
4.27
21.98
32.90
30.71
13.68
-14.57
-47.26
-76.89
-97.65
-106.04
-100.85
-83.24
-56.65
-27.06
-1.44
14.00
16.55
9.07
-2.16
-10.22
-11.49
-7.45
-3.83
-6.44
-17.54
-35.10
-54.11
-70.16
-81.14
-87.46
-89.39
-85.31
-71.42
-44.54
-5.70
38.76
78.63
104.71
112.76
104.70
87.01
66.56
47.75
30.92
14.45
-3.49
-22.71
-41.09
-55.01
-60.91
-56.36
-40.66
-14.34
20.67
60.97
101.67
137.46
164.16
179.41
183.50
178.76
168.24
155.00
141.43
129.37
119.96
112.62
104.39
90.23
64.48
24.36
-27.79
-84.68
-136.48
-174.18
-193.58
-194.71
-180.06
-152.81
-116.02
-73.53
-31.21
4.17
26.93
35.84
34.27
28.77
25.22
25.36
26.14
21.82
7.83
-16.08
-45.12
-71.43
-87.44
-88.49
-74.42
-48.87
-17.62
13.29
38.01
51.57
50.63
34.55
6.71
-25.40
-52.68
-67.45
-66.68
-53.28
-33.84
-14.62
0.23
9.69
14.08
13.33
7.01
-4.61
-19.26
-32.09
-37.74
-33.64
-21.09
-4.67
9.83
18.41
19.76
15.79
10.30
7.01
7.65
12.41
19.95
28.92
38.52
48.33
57.24
61.94
57.05
37.10
0.70
-46.73
-93.01
-123.10
-126.02
-99.90
-53.49
-2.31
39.00
62.63
69.46
66.32
60.88
57.04
53.59
47.11
34.78
16.31
-6.41
-30.67
-54.25
-75.03
-90.85
-98.41
-94.99
-79.91
-56.42
-30.77
-10.60
-1.26
-3.21
-12.36
-21.19
-23.10
-14.36
3.95
27.05
49.08
64.81
71.32
67.63
54.40
33.32
6.97
-20.67
-44.14
-57.97
-58.13
-43.12
-15.41
19.03
52.91
79.38
94.17
96.76
90.33
80.30
72.21
68.95
69.69
70.37
65.84
53.24
33.42
10.72
-9.66
-24.17
-32.56
-37.72
-42.76
-49.26
-55.85
-59.68
-57.81
-49.12
-34.70
-17.51
-1.54
8.58
9.24
-0.77
-18.35
-36.60
-46.94
-42.80
-23.73
3.97
30.09
45.64
47.41
39.14
28.22
20.75
17.85
15.56
8.58
-5.31
-23.13
-38.12
-43.36
-36.36
-20.00
-1.56
11.78
15.59
10.29
0.25
-9.05
-13.76
-12.89
-9.14
-6.17
-6.81
-11.34
-16.88
-19.81
-18.24
-12.98
-7.22
-3.90
-3.74
-4.30
-1.57
6.45
17.99
27.99
31.41
26.37
15.86
5.85
1.42
4.19
10.93
16.52
16.67
10.96
2.23
-5.54
-9.08
-8.34
-5.56
-3.01
-1.68
-0.60
1.96
5.90
8.66
6.71
-2.41
-17.67
-34.35
-45.52
-45.98
-34.23
-13.74
9.34
28.75
40.65
44.02
40.42
32.41
22.35
12.43
4.39
-0.32
-0.51
3.54
9.28
12.36
7.63
-8.19
-34.40
-65.61
-93.38
-109.40
-108.72
-91.83
-64.32
-34.16
-8.47
8.93
18.16
21.34
21.29
19.39
15.97
10.41
2.49
-7.19
-17.01
-24.64
-27.85
-25.31
-17.11
-4.90
8.17
18.33
22.27
18.45
7.30
-8.65
-26.04
-41.90
-54.37
-62.49
-66.14
-65.70
-61.69
-54.86
-46.61
-38.66
-32.94
-30.90
-32.93
-38.41
-45.39
-51.02
-52.18
-45.74
-30.27
-5.85
25.86
61.88
98.60
132.44
160.69
182.08
196.93
206.89
214.14
219.67
222.63
220.69
210.75
191.07
162.38
127.52
90.16
53.20
18.31
-12.97
-39.12
-57.94
-67.99
-69.89
-66.84
-63.02
-61.52
-62.75
-64.62
-64.07
-59.65
-52.48
-45.44
-41.31
-41.04
-42.98
-44.18
-42.28
-36.95
-30.03
-23.81
-20.46
-20.37
-22.04
-22.85
-20.19
-12.80
-1.45
11.42
21.98
26.58
23.34
12.61
-3.01
-19.91
-34.42
-44.03
-47.71
-45.92
-40.54
-33.99
-29.53
-29.71
-35.40
-44.91
-53.67
-56.77
-51.31
-38.40
-22.61
-10.28
-5.85
-9.53
-17.77
-25.58
-29.52
-29.44
-27.97
-28.66
-33.27
-40.63
-47.78
-51.21
-48.95
-42.11
-34.31
-31.13
-37.23
-54.57
-80.65
-108.98
-131.86
-143.37
-142.27
-131.67
-117.15
-103.72
-93.31
-84.78
-75.29
-62.31
-44.02
-19.59
10.92
45.37
78.50
102.40
109.16
95.36
64.60
27.16
-4.00
-19.58
-18.74
-8.09
1.59
1.84
-7.99
-22.90
-35.41
-38.52
-27.98
-3.20
34.01
79.95
129.87
177.76
217.25
243.19
253.46
249.41
234.17
211.95
185.04
153.43
115.80
72.22
27.03
-10.87
-31.16
-27.42
-0.03
43.09
89.89
129.15
152.16
156.63
145.82
128.90
111.34
94.50
76.04
53.86
27.86
0.44
-24.59
-43.95
-56.53
-64.45
-70.53
-76.41
-81.31
-82.51
-77.44
-65.51
-48.52
-30.00
-13.83
-1.75
7.13
15.09
23.87
33.57
43.24
51.58
57.99
62.10
63.85
62.91
59.32
53.40
45.84
37.86
31.01
26.43
24.39
24.42
25.78
27.66
29.29
30.30
30.81
31.02
31.15
31.54
31.17
28.83
23.47
14.57
2.51
-11.36
-25.06
-36.29
-42.95
-43.76
-37.37
-23.79
-4.16
18.89
43.05
65.85
85.17
98.86
105.03
102.98
92.73
75.25
52.36
26.57
0.42
-23.11
-41.38
-52.73
-55.95
-50.90
-38.41
-20.21
1.48
23.63
43.30
59.80
71.59
77.62
77.20
70.49
58.34
42.31
24.65
7.79
-5.75
-14.18
-16.45
-13.21
-6.13
2.05
7.82
8.07
0.84
-14.03
-35.53
-61.31
-89.10
-117.22
-144.18
-169.40
-192.78
-213.67
-230.79
-242.85
-248.85
-249.11
-245.21
-239.75
-236.54
-240.59
-255.98
-284.49
-324.71
-371.01
-414.30
-444.05
-451.36
-432.85
-393.00
-341.25
-288.25
-241.84
-205.05
-176.55
-153.13
-132.00
-106.39
-75.67
-42.37
-10.07
18.52
42.93
64.25
80.47
93.61
105.31
115.26
123.09
128.32
129.93
126.77
116.01
96.22
70.18
43.99
25.57
22.44
38.52
72.71
120.27
174.59
229.42
279.73
319.63
341.70
339.17
308.77
253.90
185.78
120.36
72.65
52.27
59.66
87.20
123.09
155.21
174.45
176.54
161.70
134.44
101.58
69.61
42.46
20.84
2.62
-14.54
-30.16
-40.75
-40.65
-25.68
3.92
43.47
85.91
123.40
149.21
158.70
149.56
122.63
81.88
34.07
-13.45
-51.12
-71.21
-71.29
-55.16
-30.92
-6.99
11.90
23.42
27.21
24.44
16.76
6.08
-5.54
-16.80
-26.19
-33.38
-39.73
-46.48
-53.21
-57.04
-53.01
-36.07
-3.56
42.50
95.12
142.65
173.02
178.79
159.79
122.45
76.02
28.62
-14.72
-51.91
-82.57
-106.73
-124.38
-136.07
-143.29
-148.19
-153.05
-159.28
-167.19
-176.11
-185.22
-193.40
-200.04
-204.92
-207.93
-208.74
-206.60
-201.87
-193.77
-181.97
-166.60
-148.05
-126.31
-101.19
-72.65
-40.98
-7.07
27.36
59.76
87.50
108.55
121.48
125.98
123.18
116.60
111.89
115.07
129.10
152.06
176.44
191.79
189.48
166.58
126.81
81.81
46.94
35.41
53.55
98.61
159.77
221.39
267.26
285.52
271.77
229.83
169.84
104.73
46.15
0.46
-28.88
-42.23
-43.29
-36.42
-27.10
-19.97
-17.57
-20.01
-23.80
-22.83
-12.87
6.46
30.12
49.58
56.48
46.11
19.68
-17.24
-57.56
-96.44
-131.56
-162.48
-189.15
-210.39
-224.71
-230.79
-229.02
-219.00
-200.66
-174.43
-142.01
-106.99
-74.43
-49.49
-35.23
-31.36
-33.26
-34.34
-29.03
-15.27
5.00
27.90
49.74
68.65
84.32
97.07
106.44
111.13
109.95
103.00
92.05
79.71
68.76
61.10
56.94
54.98
53.19
49.82
44.15
36.70
28.83
22.09
17.47
15.12
14.31
13.86
12.71
10.34
6.94
3.17
-0.14
-2.45
-3.65
-4.04
-4.19
-4.61
-5.56
-6.94
-8.46
-9.74
-10.53
-10.81
-10.70
-10.44
-10.28
-10.29
-10.47
-10.70
-10.81
-10.76
-10.49
-10.11
-9.61
-9.24
-9.07
-9.10
-9.21
-9.24
-9.09
-8.75
-8.35
-8.14
-8.31
-8.92
-9.85
-10.82
-11.50
-11.69
-11.43
-11.01
-10.91
-11.54
-13.07
-15.28
-17.61
-19.35
-20.04
-19.60
-18.54
-17.78
-18.28
-20.58
-24.49
-29.20
-33.17
-35.27
-34.86
-32.35
-29.25
-27.69
-29.60
-35.72
-44.84
-53.79
-58.29
-54.35
-39.96
-16.23
12.78
41.48
64.56
78.98
84.71
84.20
80.93
78.34
78.55
81.91
86.70
89.24
84.62
68.46
39.25
0.46
-39.34
-69.19
-79.69
-67.67
-37.53
0.73
35.91
60.52
72.82
75.92
74.72
72.73
71.00
69.13
67.14
66.14
67.30
70.27
71.76
66.79
51.31
24.91
-8.39
-41.36
-66.83
-80.65
-82.87
-76.96
-67.53
-58.42
-51.66
-47.80
-46.50
-47.21
-49.16
-51.26
-52.35
-51.53
-48.82
-45.01
-41.55
-39.80
-40.39
-42.90
-46.08
-48.59
-49.36
-48.16
-45.55
-42.56
-40.37
-40.13
-42.79
-48.53
-56.04
-62.10
-62.18
-52.13
-30.50
0.24
34.02
63.53
83.15
91.17
89.87
83.90
77.70
73.74
72.19
71.88
71.58
70.79
69.86
69.20
68.99
69.02
68.94
68.48
68.15
69.11
72.33
77.60
82.55
83.07
74.91
56.05
28.22
-3.18
-31.21
-50.41
-58.75
-58.13
-52.54
-45.83
-39.88
-34.63
-29.15
-22.76
-15.85
-9.48
-4.70
-1.96
-1.08
-1.57
-3.22
-6.42
-11.89
-20.35
-31.77
-45.25
-59.03
-70.83
-78.50
-80.67
-77.02
-67.92
-55.29
-40.87
-26.14
-12.11
0.71
12.23
22.50
31.63
39.56
46.24
51.80
56.52
60.51
63.75
66.06
67.04
66.22
63.19
57.48
49.19
38.66
26.65
13.90
1.31
-10.32
-20.37
-28.40
-34.25
-37.91
-39.79
-40.14
-39.50
-38.33
-37.01
-35.73
-34.52
-33.33
-32.07
-30.78
-29.43
-28.29
-27.55
-27.28
-27.39
-27.64
-27.72
-27.45
-26.86
-26.16
-25.82
-26.15
-27.27
-28.92
-30.64
-31.98
-32.66
-32.85
-32.94
-33.46
-34.76
-36.77
-39.24
-41.98
-44.93
-48.06
-50.96
-52.61
-51.68
-47.27
-39.57
-29.94
-20.23
-11.57
-3.74
4.56
14.63
26.50
38.56
48.25
53.45
53.76
50.56
46.09
42.29
39.79
38.08
36.17
33.52
30.25
27.07
24.68
23.32
22.77
22.38
21.53
19.92
17.63
15.10
12.87
11.34
10.54
10.25
10.02
9.49
8.47
7.07
5.55
4.25
3.36
2.89
2.68
2.48
2.09
1.45
0.60
-0.29
-1.07
-1.66
-2.06
-2.39
-2.74
-3.22
-3.81
-4.47
-5.12
-5.68
-6.13
-6.52
-6.95
-7.47
-8.15
-9.03
-10.06
-11.21
-12.41
-13.64
-14.85
-16.11
-17.43
-18.87
-20.45
-22.16
-23.99
-25.94
-28.00
-30.19
-32.57
-35.16
-37.87
-40.46
-42.39
-43.06
-41.96
-38.70
-33.22
-25.97
-17.64
-9.12
-1.16
5.78
11.41
15.79
18.98
20.90
21.43
20.47
18.01
14.59
11.13
8.86
8.95
12.21
18.78
27.93
38.49
49.03
58.07
64.63
68.28
69.27
68.78
68.58
70.00
72.92
74.63
70.36
55.05
25.86
-16.10
-65.86
-115.84
-158.32
-187.52
-200.41
-196.52
-177.84
-148.60
-114.85
-83.76
-61.52
-52.03
-55.81
-70.23
-91.00
-113.81
-135.69
-154.89
-170.57
-181.68
-187.58
-188.16
-184.15
-176.68
-166.68
-154.23
-137.91
-118.51
-95.84
-70.19
-42.52
-14.48
12.15
36.06
57.07
76.13
95.00
116.08
141.05
170.53
204.15
240.79
279.03
317.64
355.67
392.70
429.47
467.22
507.37
550.43
594.85
636.09
666.98
679.40
667.37
629.88
571.21
499.99
426.17
357.79
298.73
248.53
203.76
160.81
117.85
74.27
30.95
-10.75
-49.81
-86.58
-122.36
-159.72
-200.34
-244.61
-293.75
-348.19
-405.52
-459.31
-500.21
-518.41
-509.97
-477.94
-432.15
-388.26
-359.08
-347.53
-345.52
-339.73
-318.06
-278.20
-225.39
-169.08
-122.78
-97.82
-99.29
-125.60
-171.91
-230.69
-297.14
-365.26
-405.60
-394.50
-329.08
-228.70
-117.92
-25.07
51.72
113.11
157.17
181.56
183.46
160.24
114.29
56.33
1.57
-33.13
-40.33
-21.62
14.07
51.86
78.28
87.53
82.81
71.69
62.20
55.94
50.94
44.49
33.54
17.28
-1.57
-17.79
-27.46
-29.06
-25.64
-21.85
-20.62
-23.93
-32.11
-43.61
-55.23
-64.29
-69.33
-71.78
-73.74
-76.99
-82.75
-91.25
-101.41
-110.81
-117.30
-119.66
-118.71
-116.29
-114.32
-113.97
-114.74
-116.80
-117.82
-115.00
-106.31
-91.25
-70.06
-43.03
-10.66
24.99
59.93
89.43
108.71
115.24
109.67
97.43
86.00
81.64
86.57
99.08
117.20
139.08
163.28
186.09
204.61
216.12
218.84
212.23
198.54
185.27
181.24
193.07
218.92
254.03
290.09
317.17
324.42
304.60
260.42
202.09
144.33
96.72
68.12
62.28
77.43
105.38
116.45
89.19
17.43
-60.69
-128.68
-180.20
-223.53
-261.05
-293.57
-320.24
-336.29
-337.47
-322.66
-299.03
-271.99
-245.08
-218.15
-189.72
-156.86
-113.73
-55.81
17.30
97.39
175.59
243.86
297.75
335.68
359.03
371.94
377.60
376.27
363.09
334.50
289.70
231.39
164.29
93.56
24.73
-37.89
-91.08
-133.76
-164.86
-184.14
-192.62
-192.97
-188.68
-182.19
-174.33
-164.29
-150.78
-132.22
-108.10
-79.41
-48.89
-20.50
1.72
14.74
17.44
11.30
0.48
-9.51
-13.74
-10.05
-0.28
10.63
17.40
17.54
13.49
11.80
19.97
42.42
77.91
119.63
158.36
186.46
200.45
201.29
192.21
176.19
154.90
129.09
99.99
70.54
44.60
25.53
14.23
8.15
2.65
-6.72
-21.78
-41.04
-60.65
-76.51
-86.22
-89.47
-87.62
-82.55
-75.56
-67.37
-58.42
-49.16
-40.07
-31.12
-21.44
-9.54
5.61
23.87
43.08
59.92
71.28
75.84
74.91
71.89
70.75
74.47
83.33
94.88
104.91
109.23
105.60
93.93
75.92
53.46
27.40
-2.48
-36.51
-74.04
-112.71
-149.36
-181.26
-206.88
-225.14
-234.51
-232.36
-216.35
-187.09
-149.88
-114.63
-92.13
-89.19
-104.97
-131.38
-156.81
-171.50
-171.39
-158.44
-137.59
-112.85
-84.91
-52.05
-13.34
28.71
67.03
92.31
97.26
80.31
46.74
6.63
-29.53
-54.96
-68.29
-72.20
-70.27
-63.87
-51.00
-27.72
8.94
58.33
115.55
172.65
221.23
254.53
268.63
262.36
236.80
195.07
142.82
87.73
38.39
2.39
-15.85
-16.26
-3.14
16.49
35.47
48.73
54.60
54.63
52.81
54.05
62.31
79.32
104.41
135.05
168.13
200.74
229.69
252.54
267.55
274.10
272.94
266.88
260.75
259.84
267.59
282.12
297.82
306.45
299.78
271.82
221.00
150.68
68.17
-18.00
-102.73
-182.56
-255.60
-321.24
-379.92
-432.90
-481.78
-528.36
-574.27
-622.54
-671.46
-713.46
-737.19
-732.38
-694.96
-629.69
-549.83
-453.14
-348.25
-247.26
-159.33
-85.59
-21.46
37.42
91.91
139.71
178.59
206.05
223.88
235.99
246.23
255.30
261.49
263.87
262.50
258.50
252.21
244.95
237.70
231.08
223.24
211.94
198.07
183.14
168.40
154.55
142.96
134.36
129.14
124.56
117.69
109.68
100.68
88.71
71.19
49.39
23.84
-4.55
-37.39
-75.38
-113.48
-148.24
-179.38
-206.54
-228.86
-245.52
-239.44
-201.93
-159.79
-124.32
-91.07
-61.63
-38.29
-22.95
-16.50
-18.07
-28.26
-46.68
-67.91
-89.40
-112.38
-138.20
-167.97
-202.43
-241.40
-285.33
-332.01
-372.74
-398.60
-403.66
-385.05
-344.34
-286.62
-219.10
-149.81
-84.02
-21.44
39.02
96.94
150.32
195.87
230.98
253.86
263.50
261.06
251.39
240.68
234.44
235.36
242.55
253.28
263.51
270.15
272.90
274.93
279.78
288.79
299.49
297.78
274.28
229.82
174.84
120.24
69.85
20.54
-29.72
-82.54
-133.02
-171.25
-189.69
-187.65
-171.90
-149.18
-126.71
-107.48
-90.38
-72.01
-49.41
-23.50
1.45
20.00
28.36
25.14
11.22
-11.63
-40.52
-70.24
-93.86
-104.52
-98.29
-76.75
-47.51
-21.31
-8.35
-14.05
-37.39
-72.71
-112.89
-152.26
-187.67
-217.64
-240.27
-252.45
-250.25
-230.81
-194.08
-143.41
-85.05
-25.76
29.15
77.41
119.74
158.45
195.63
231.37
263.56
288.93
304.75
310.25
307.17
298.50
287.29
274.99
260.95
243.57
221.52
195.09
165.92
135.69
104.77
71.67
34.21
-8.79
-56.05
-103.74
-146.91
-181.61
-206.55
-222.77
-233.14
-241.06
-249.70
-261.38
-276.64
-293.99
-309.16
-315.78
-307.19
-279.01
-231.04
-167.93
-97.60
-28.72
31.68
79.72
114.37
136.66
148.36
151.51
147.96
139.30
127.28
113.57
100.10
88.95
82.14
81.08
86.17
96.66
110.59
125.47
138.44
146.82
147.97
139.69
121.01
92.83
58.38
22.76
-7.43
-26.09
-28.94
-15.12
12.15
46.43
79.91
105.66
119.55
121.71
115.70
106.72
99.04
94.35
92.02
90.33
87.47
81.58
71.37
55.89
35.61
13.34
-5.48
-13.60
-4.76
22.97
59.99
90.61
98.28
75.79
30.26
-22.26
-66.14
-92.96
-103.00
-101.95
-95.91
-88.55
-80.28
-70.19
-57.22
-40.62
-19.46
6.34
35.57
65.98
93.95
115.50
127.51
128.72
119.99
103.68
81.73
55.71
27.39
-1.02
-26.64
-46.67
-59.96
-68.20
-71.59
-73.15
-76.05
-81.86
-90.09
-98.70
-104.94
-106.77
-103.62
-95.76
-83.67
-66.02
-39.67
-1.07
50.47
111.95
177.02
237.80
287.43
321.51
338.94
340.52
327.38
298.34
252.83
192.30
120.62
42.86
-36.61
-114.76
-190.27
-263.50
-338.77
-418.37
-500.72
-579.98
-647.94
-697.03
-722.60
-724.07
-705.27
-675.96
-643.16
-608.46
-569.46
-523.88
-473.32
-424.20
-384.09
-333.87
-264.60
-175.65
-74.55
27.65
120.20
193.98
243.13
269.69
283.36
290.53
297.32
307.85
323.14
341.67
361.84
377.26
386.39
390.38
388.25
379.86
365.43
345.27
319.94
290.61
259.14
228.74
201.65
176.25
150.25
121.96
91.05
58.99
28.50
2.56
-15.74
-25.03
-27.14
-24.91
-21.05
-17.14
-13.17
-7.91
0.10
11.98
27.16
42.65
55.00
61.52
61.25
55.16
45.48
34.28
23.19
12.66
2.48
-7.38
-16.15
-22.27
-23.88
-19.53
-9.10
6.18
24.14
42.19
58.05
69.97
76.82
78.25
74.65
67.12
57.46
47.75
39.41
33.00
28.08
23.35
17.93
11.72
5.42
0.03
-3.77
-6.39
-8.58
-11.39
-15.45
-20.85
-27.38
-35.05
-43.85
-53.28
-62.26
-68.82
-70.75
-66.79
-57.20
-43.94
-29.62
-16.38
-5.09
4.55
13.60
22.65
31.34
38.67
43.09
43.53
39.70
32.24
22.30
11.22
-0.29
-12.11
-24.34
-37.10
-49.64
-60.61
-68.59
-73.23
-75.72
-78.47
-83.76
-91.86
-100.38
-104.78
-100.47
-85.20
-60.16
-29.74
0.73
27.05
47.62
63.09
75.08
84.72
91.66
94.69
92.44
84.47
71.40
54.65
35.64
15.79
-3.93
-22.72
-39.85
-54.83
-67.68
-79.06
-90.19
-102.20
-115.56
-129.80
-143.58
-155.44
-163.96
-168.00
-166.48
-158.18
-142.04
-117.76
-86.55
-51.22
-15.76
16.13
41.82
60.54
72.76
79.41
81.35
79.01
72.66
62.90
50.67
37.05
23.10
9.79
-2.19
-12.19
-19.66
-24.20
-25.88
-25.50
-24.45
-24.64
-27.62
-34.03
-42.85
-51.40
-55.97
-52.88
-40.00
-17.70
11.00
41.46
68.41
87.62
96.88
96.40
88.51
76.66
64.12
52.93
43.20
33.79
23.28
11.14
-1.60
-12.63
-19.66
-21.60
-19.12
-14.12
-8.74
-4.90
-3.53
-4.89
-8.68
-14.13
-19.94
-24.34
-25.59
-22.25
-13.83
-0.54
16.64
36.35
56.87
76.09
91.55
100.96
103.06
97.95
87.44
74.52
62.11
52.30
45.68
41.25
37.06
30.96
21.41
8.25
-7.28
-23.14
-36.78
-46.54
-51.75
-52.88
-51.21
-48.31
-45.55
-44.14
-45.32
-49.96
-58.61
-70.57
-83.76
-94.76
-99.81
-95.98
-82.17
-59.72
-31.52
-1.41
27.13
51.37
69.53
80.64
84.59
81.79
73.54
62.04
49.76
38.87
30.76
25.69
23.08
21.96
21.35
20.44
18.68
15.56
10.81
4.37
-3.52
-12.62
-23.03
-35.23
-49.97
-67.03
-84.63
-99.32
-106.68
-103.22
-87.96
-62.97
-32.89
-2.96
22.60
41.55
53.72
59.85
60.83
57.02
48.85
36.97
22.78
8.12
-5.22
-16.12
-24.47
-30.79
-35.90
-40.35
-44.32
-47.74
-50.36
-52.44
-54.91
-59.05
-65.90
-75.47
-85.89
-93.74
-94.91
-86.15
-66.91
-39.46
-8.41
21.16
45.22
61.92
71.51
75.44
75.41
72.59
68.10
63.03
58.93
57.38
59.21
64.23
70.86
76.78
79.84
78.91
74.13
66.65
57.97
49.37
41.50
34.06
26.60
18.90
11.66
6.26
4.58
8.14
17.09
30.01
44.11
56.38
64.58
68.18
67.62
64.05
58.18
49.82
38.52
23.93
6.60
-11.99
-29.88
-45.34
-57.47
-66.50
-73.20
-78.40
-82.62
-85.87
-88.50
-91.39
-96.08
-104.06
-115.62
-128.84
-139.23
-141.34
-130.60
-105.64
-69.16
-27.11
13.51
47.24
71.42
86.42
94.14
96.48
94.38
87.89
77.09
62.92
47.22
32.22
19.51
9.53
1.80
-4.78
-11.18
-17.62
-23.79
-29.13
-33.84
-38.87
-45.75
-55.48
-67.47
-79.16
-86.52
-85.52
-73.77
-51.93
-23.42
6.83
34.00
55.04
69.18
77.25
80.68
80.63
77.75
72.38
65.04
56.53
47.69
38.96
30.22
20.70
9.65
-2.99
-16.56
-30.01
-42.24
-52.69
-61.76
-70.32
-79.12
-88.03
-95.44
-98.60
-94.75
-82.24
-61.34
-34.44
-5.42
21.96
44.91
62.05
73.48
79.84
81.96
80.44
75.83
68.57
59.25
48.69
37.75
27.32
17.95
9.66
1.87
-6.51
-16.45
-28.56
-42.70
-57.95
-72.81
-85.59
-94.53
-98.06
-94.93
-84.50
-67.20
-44.60
-19.37
5.48
27.33
44.59
56.95
64.73
68.49
68.45
64.44
56.11
43.62
27.83
10.36
-6.74
-21.75
-33.69
-42.51
-49.11
-54.68
-60.33
-66.69
-73.82
-81.12
-87.50
-91.33
-90.59
-83.44
-68.77
-46.81
-19.36
10.43
39.12
63.83
82.93
96.07
103.73
106.68
105.61
100.83
92.64
81.42
67.99
53.64
39.82
27.88
18.64
12.31
8.20
5.32
2.34
-1.94
-8.48
-17.72
-29.30
-41.78
-52.55
-58.34
-56.32
-45.15
-25.89
-1.53
24.00
46.94
64.99
77.25
84.29
87.13
86.68
83.52
77.88
69.90
60.02
49.04
38.04
28.04
19.70
13.06
7.34
1.40
-5.95
-15.58
-27.93
-42.85
-59.54
-76.41
-90.81
-99.69
-100.37
-91.39
-73.55
-49.38
-22.79
2.33
23.27
38.63
48.47
53.35
54.11
51.30
45.54
37.64
28.66
19.89
12.53
7.21
4.12
2.92
2.77
2.84
2.44
1.08
-1.53
-5.74
-11.85
-19.92
-29.32
-38.28
-44.18
-44.23
-36.63
-21.24
-0.11
23.56
46.34
65.58
79.93
88.88
92.64
91.27
85.42
75.92
64.28
52.19
40.98
31.11
22.30
13.60
3.94
-7.17
-19.64
-32.87
-46.03
-58.32
-69.55
-80.11
-90.70
-101.88
-113.28
-122.95
-127.85
-124.71
-111.55
-88.68
-59.03
-27.16
2.22
25.67
41.81
50.78
53.78
52.04
46.59
38.34
28.51
18.65
10.29
4.53
1.59
0.80
0.88
0.53
-1.07
-4.04
-8.25
-13.19
-18.60
-24.49
-30.73
-36.75
-41.42
-43.30
-41.48
-36.02
-28.27
-20.51
-15.00
-13.27
-15.70
-21.66
-29.59
-37.51
-43.20
-44.39
-39.30
-27.26
-9.13
12.81
35.44
55.93
72.27
83.49
89.51
90.40
86.35
77.92
66.04
52.15
37.90
24.68
13.43
4.56
-1.99
-6.37
-8.99
-10.43
-11.53
-13.44
-17.43
-24.52
-34.77
-46.85
-58.10
-65.02
-64.27
-54.25
-35.72
-11.64
13.74
36.62
54.65
67.43
75.74
80.43
81.89
79.82
73.77
63.88
51.10
37.41
25.07
16.04
11.29
10.57
12.36
14.37
14.05
9.53
-0.18
-14.75
-32.51
-50.81
-66.35
-75.74
-76.29
-67.23
-49.75
-27.13
-3.81
16.10
29.99
37.13
38.42
35.44
29.63
21.80
12.49
2.33
-7.98
-17.31
-24.73
-29.56
-31.32
-29.98
-25.75
-19.20
-11.28
-3.34
2.95
5.82
3.89
-3.33
-14.90
-28.21
-39.27
-43.90
-38.96
-23.95
-1.22
24.76
49.18
68.42
81.21
88.28
91.33
91.83
90.37
86.65
79.99
70.30
58.01
44.26
30.39
17.27
5.46
-4.89
-13.94
-21.80
-28.36
-33.93
-39.05
-44.77
-52.36
-62.31
-73.61
-83.39
-87.69
-83.00
-67.71
-43.21
-13.58
15.67
39.56
54.94
61.13
59.50
52.38
42.06
30.30
18.23
6.64
-3.87
-12.82
-19.79
-24.68
-27.68
-29.59
-31.18
-33.29
-36.64
-41.37
-47.65
-55.74
-66.06
-78.86
-93.78
-109.04
-121.42
-126.95
-122.53
-107.30
-83.05
-53.80
-24.08
2.31
23.44
38.83
48.84
53.90
54.08
49.78
41.91
32.42
23.71
17.77
15.49
16.35
18.85
20.89
20.71
17.34
10.63
1.18
-10.11
-22.43
-34.89
-46.01
-54.03
-56.89
-52.75
-40.93
-22.33
0.41
23.82
44.63
60.89
71.98
78.37
80.72
79.23
73.80
64.23
51.01
35.69
20.56
7.94
-0.66
-5.11
-6.70
-7.28
-8.57
-11.41
-16.09
-22.54
-30.77
-40.75
-52.05
-63.03
-70.46
-70.42
-59.73
-37.46
-5.87
30.18
64.52
91.65
108.14
113.23
108.49
96.91
82.14
67.40
55.43
47.63
43.83
42.33
40.16
34.34
22.64
4.74
-17.83
-41.87
-63.87
-80.91
-91.62
-96.71
-98.07
-97.66
-96.30
-93.39
-86.93
-74.90
-56.47
-32.47
-5.73
20.42
43.01
60.35
72.07
78.73
81.01
79.38
74.27
65.93
55.02
42.48
29.47
17.31
7.09
-0.45
-5.16
-7.46
-8.63
-10.22
-13.99
-21.70
-34.27
-51.73
-72.78
-94.72
-113.45
-124.57
-124.35
-111.18
-86.37
-53.66
-18.47
13.90
39.57
56.71
65.10
65.53
58.98
46.48
29.40
9.45
-11.03
-29.60
-44.27
-54.01
-59.00
-60.37
-59.53
-57.70
-55.73
-54.21
-53.73
-55.25
-59.81
-67.92
-78.79
-89.85
-97.07
-96.38
-85.16
-63.36
-33.61
-0.40
31.40
57.83
76.62
87.11
89.80
86.04
77.63
66.74
55.73
46.49
40.21
36.97
35.66
34.65
32.29
27.67
21.00
13.31
5.72
-1.27
-8.21
-16.25
-26.08
-36.84
-45.80
-49.16
-43.67
-28.08
-3.87
25.15
54.29
79.60
98.50
110.07
114.47
112.39
104.66
92.46
77.16
60.50
44.47
30.49
19.26
10.70
4.04
-1.67
-7.31
-13.49
-20.75
-29.47
-40.01
-52.32
-65.42
-77.05
-83.85
-82.37
-70.40
-47.97
-17.63
16.26
49.08
77.37
99.28
114.64
123.94
127.53
125.48
117.91
105.22
88.87
70.94
53.58
38.60
26.82
18.10
11.70
6.76
2.44
-1.88
-6.96
-13.93
-23.98
-37.67
-53.86
-69.51
-79.90
-80.34
-68.14
-43.91
-11.62
23.09
54.65
79.29
95.68
104.11
105.57
100.91
90.65
75.41
56.64
36.12
16.03
-1.71
-16.04
-26.78
-34.57
-40.39
-45.49
-50.90
-57.52
-66.02
-76.74
-89.33
-102.30
-112.98
-117.68
-113.23
-98.07
-73.33
-42.45
-10.12
19.21
42.61
58.91
68.08
70.78
67.57
59.08
46.33
30.97
14.95
0.24
-12.04
-21.68
-29.28
-35.68
-41.51
-46.94
-51.73
-55.72
-59.43
-64.08
-71.08
-81.14
-93.23
-104.32
-110.32
-107.50
-94.24
-71.50
-42.72
-12.30
15.69
38.67
55.26
64.88
67.03
61.33
47.96
28.44
5.48
-17.75
-38.33
-54.58
-66.45
-74.75
-80.46
-84.17
-85.99
-85.89
-84.43
-82.61
-81.56
-81.66
-81.61
-78.28
-67.71
-46.46
-13.31
29.64
77.48
123.88
162.98
191.11
207.16
212.43
209.25
200.03
186.52
169.86
150.88
130.56
110.31
91.56
75.59
63.11
54.01
47.42
42.01
36.38
29.37
20.28
8.73
-5.07
-20.15
-34.52
-45.29
-49.39
-44.43
-30.11
-8.32
16.94
40.98
59.79
71.13
74.66
71.46
63.14
51.24
37.10
21.85
6.86
-6.82
-18.20
-26.81
-32.80
-36.75
-39.33
-41.11
-42.43
-43.70
-45.47
-48.29
-52.45
-57.33
-61.16
-61.07
-54.17
-38.79
-15.48
13.08
42.90
70.18
92.43
108.68
119.05
123.93
123.38
117.36
106.16
90.91
73.72
56.87
42.51
31.87
25.06
21.34
19.33
17.31
13.46
6.04
-6.35
-24.32
-47.31
-73.09
-98.03
-117.67
-128.17
-127.52
-116.32
-97.53
-75.26
-53.37
-34.20
-18.68
-6.58
2.28
7.62
8.70
4.97
-3.51
-15.79
-30.31
-45.23
-58.78
-69.62
-76.81
-80.00
-79.62
-76.75
-73.29
-71.36
-72.89
-78.94
-89.18
-101.30
-111.49
-115.19
-108.82
-91.25
-64.39
-32.68
-1.36
25.42
45.57
59.30
68.13
73.78
77.19
78.46
77.43
73.92
68.09
60.34
51.19
41.31
31.25
21.46
12.08
3.16
-5.66
-14.67
-24.31
-35.21
-48.16
-63.75
-81.63
-99.84
-114.83
-122.32
-118.96
-103.76
-78.86
-48.81
-19.05
5.93
23.69
33.76
36.89
34.38
27.65
17.82
6.05
-6.57
-19.12
-31.00
-42.16
-52.69
-62.72
-72.04
-80.07
-85.68
-87.46
-84.31
-76.13
-64.26
-51.29
-40.33
-33.46
-30.77
-29.94
-27.31
-19.46
-4.44
17.40
43.90
72.02
98.72
121.44
138.19
147.61
149.02
142.74
130.22
113.72
95.81
78.60
63.45
50.92
40.86
32.69
25.55
18.42
10.15
-0.13
-12.86
-27.91
-44.56
-61.66
-77.38
-89.28
-94.75
-91.39
-78.16
-55.81
-26.96
4.57
34.94
61.07
81.03
93.84
98.99
96.49
87.11
72.36
54.68
36.80
20.95
8.23
-1.46
-8.99
-15.42
-21.44
-27.39
-33.39
-39.73
-47.01
-55.92
-66.98
-79.77
-92.70
-102.99
-107.33
-103.04
-88.89
-65.85
-36.65
-4.93
25.79
52.87
74.58
89.74
97.68
98.02
91.12
78.47
62.57
46.27
32.13
21.60
14.90
10.99
8.43
5.71
1.86
-3.55
-10.63
-19.42
-30.10
-42.54
-55.86
-68.13
-76.40
-77.54
-69.35
-51.54
-26.03
3.65
33.44
59.99
81.26
96.42
105.47
108.75
106.73
100.07
89.75
77.18
63.92
51.29
39.89
29.54
19.77
10.09
0.43
-8.87
-17.19
-24.15
-29.75
-34.63
-39.72
-46.02
-53.93
-62.95
-71.56
-77.11
-76.86
-68.80
-52.57
-29.72
-3.46
22.54
45.26
62.67
74.00
79.12
78.35
72.39
62.51
50.63
39.07
29.78
23.76
20.79
19.66
18.76
17.06
14.22
10.54
6.63
2.96
-0.58
-4.45
-9.51
-16.69
-26.47
-38.82
-52.59
-65.56
-74.70
-77.31
-71.69
-57.96
-37.99
-14.58
9.51
32.27
52.56
69.75
83.13
91.86
95.26
93.54
87.85
80.01
71.73
63.97
56.65
49.08
40.40
30.29
18.90
6.75
-5.58
-17.72
-29.35
-40.42
-51.02
-61.50
-72.32
-83.91
-95.52
-105.18
-109.82
-106.32
-92.76
-69.68
-39.92
-7.74
22.67
48.56
68.93
84.06
94.48
100.47
101.65
97.53
88.08
73.94
56.46
37.55
18.97
2.03
-12.58
-24.94
-35.62
-45.24
-53.90
-61.17
-66.46
-69.74
-71.58
-73.53
-77.21
-83.30
-90.53
-95.87
-95.59
-87.03
-69.78
-45.91
-19.15
6.69
28.93
46.43
59.06
66.94
70.06
68.49
62.79
54.38
45.15
36.86
30.56
26.21
22.94
19.86
16.27
11.96
6.89
1.23
-5.00
-12.02
-20.24
-30.06
-41.43
-53.49
-64.03
-69.91
-67.90
-56.06
-35.04
-8.24
19.25
42.42
58.01
65.56
66.72
63.98
59.05
52.53
43.95
33.01
20.16
6.74
-5.63
-15.78
-23.52
-29.43
-34.35
-38.79
-42.93
-46.34
-49.19
-52.13
-56.50
-63.52
-73.29
-84.09
-92.38
-94.05
-86.05
-67.87
-41.86
-12.51
15.38
38.40
55.17
66.17
72.42
74.61
72.52
65.83
54.47
39.74
23.81
9.32
-1.58
-7.92
-10.16
-9.87
-8.97
-9.03
-11.37
-16.42
-24.31
-34.74
-46.98
-59.37
-69.44
-74.30
-71.56
-60.44
-42.14
-19.78
2.85
22.64
38.26
50.20
59.81
68.11
75.03
79.29
79.23
74.23
64.78
52.86
40.85
30.60
22.86
17.18
12.47
7.44
1.16
-6.72
-16.40
-27.93
-41.03
-54.43
-66.07
-73.00
-72.42
-62.75
-44.45
-20.17
6.20
30.79
50.85
65.00
73.02
75.03
71.39
62.46
49.26
33.44
17.19
2.91
-7.60
-13.42
-14.75
-12.43
-7.84
-2.58
1.62
2.98
-0.23
-9.26
-24.21
-43.62
-64.15
-81.09
-89.78
-87.08
-72.56
-48.76
-20.20
8.13
32.38
50.65
62.74
69.11
70.42
66.87
58.76
46.69
32.23
17.50
4.51
-5.37
-11.92
-15.69
-17.68
-18.87
-19.78
-20.63
-21.51
-22.94
-25.89
-31.70
-41.02
-53.35
-66.24
-75.82
-78.04
-70.44
-53.17
-29.15
-2.99
20.82
39.11
50.72
56.09
56.48
53.10
46.95
39.09
30.59
22.70
16.44
12.14
9.45
7.45
4.93
0.97
-4.62
-11.32
-18.26
-24.38
-29.28
-33.26
-37.45
-43.29
-51.44
-61.00
-69.58
-73.73
-70.23
-57.75
-37.36
-12.14
13.83
36.97
55.05
67.37
74.21
76.24
73.97
67.97
58.93
47.70
35.46
23.24
11.78
1.76
-6.46
-12.89
-17.60
-20.91
-23.36
-25.37
-27.53
-30.46
-34.70
-40.78
-48.91
-58.18
-66.47
-70.97
-68.78
-58.33
-40.26
-17.20
7.08
28.91
45.78
56.84
62.34
63.14
60.16
54.17
46.05
36.81
27.64
19.65
13.45
9.11
6.30
4.23
2.00
-1.10
-5.42
-10.93
-17.28
-24.37
-32.46
-42.06
-53.43
-65.76
-76.93
-83.65
-82.93
-73.21
-55.22
-31.81
-6.73
16.61
36.04
50.84
61.33
68.03
71.28
71.33
68.54
63.53
57.16
50.23
43.32
36.66
30.11
23.48
16.70
9.85
3.28
-2.86
-8.66
-14.88
-22.63
-33.00
-46.32
-61.26
-75.04
-83.92
-84.52
-75.14
-56.57
-31.70
-4.49
21.37
43.34
60.14
71.51
77.67
78.96
75.94
69.57
61.12
52.04
43.49
36.06
29.68
24.07
18.70
13.23
7.65
1.94
-3.75
-9.45
-15.35
-21.91
-29.73
-39.39
-50.94
-63.28
-74.06
-80.18
-78.73
-68.29
-49.67
-25.77
-0.54
22.46
40.94
54.07
62.38
66.51
67.06
64.57
59.72
53.62
47.60
42.79
39.53
37.58
36.01
33.82
30.42
25.66
19.96
13.80
7.53
1.02
-6.27
-15.13
-26.48
-40.85
-57.88
-75.81
-91.63
-101.40
-101.75
-91.10
-70.40
-42.95
-13.06
15.22
39.51
58.91
73.45
83.18
87.66
86.37
79.42
68.18
54.90
42.23
31.97
24.76
19.81
15.66
11.01
5.26
-1.27
-7.73
-13.28
-17.61
-21.02
-24.27
-28.43
-34.45
-43.13
-54.64
-68.11
-81.46
-91.32
-94.17
-87.35
-70.26
-44.85
-14.98
14.87
41.00
61.37
75.52
83.74
86.57
84.39
77.80
67.75
55.87
43.92
33.45
25.30
19.42
15.10
11.26
7.05
1.95
-4.17
-10.96
-18.12
-25.31
-32.60
-40.58
-50.04
-61.55
-74.48
-86.64
-94.70
-95.12
-85.61
-66.30
-39.83
-10.48
17.42
40.93
58.92
71.72
79.92
83.80
83.24
78.22
69.34
58.12
46.47
35.97
27.41
20.55
14.64
8.93
3.14
-2.51
-7.44
-11.15
-13.77
-16.08
-19.60
-25.98
-36.37
-50.44
-66.12
-79.66
-86.64
-83.54
-68.93
-44.15
-12.93
19.93
49.94
74.05
90.95
100.59
103.63
101.09
93.97
83.61
71.54
59.43
48.39
38.86
30.59
22.71
14.79
6.65
-1.35
-8.55
-14.47
-19.13
-23.17
-27.81
-34.61
-44.78
-58.77
-75.50
-91.92
-103.69
-106.40
-97.06
-75.66
-45.33
-11.32
20.63
46.32
64.02
74.10
78.11
77.54
73.31
65.84
55.92
44.71
33.88
25.01
18.65
14.40
11.03
7.21
2.16
-4.07
-10.73
-17.06
-22.62
-27.83
-33.73
-41.60
-52.50
-66.24
-81.01
-93.42
-99.34
-95.24
-79.90
-54.82
-24.06
7.13
34.26
54.72
67.92
74.51
75.69
72.27
64.94
54.44
41.94
28.98
16.96
6.50
-2.44
-10.30
-17.53
-24.24
-30.13
-35.02
-39.05
-42.68
-46.94
-52.72
-60.74
-71.02
-82.39
-92.30
-97.67
-95.29
-83.35
-62.30
-34.91
-5.50
21.41
42.78
57.62
66.44
70.69
71.58
69.82
65.55
58.93
50.31
40.49
30.37
20.78
12.28
4.91
-1.42
-7.14
-12.55
-17.99
-23.65
-29.83
-36.90
-45.20
-54.89
-65.20
-74.03
-78.43
-75.54
-63.64
-43.43
-17.70
9.48
34.08
53.40
66.46
73.86
76.69
76.02
72.54
66.42
57.92
47.40
35.58
23.47
12.16
2.69
-4.27
-8.41
-9.93
-9.51
-8.31
-7.83
-9.86
-16.03
-26.94
-41.72
-57.71
-70.73
-76.44
-72.04
-57.03
-33.95
-7.23
18.46
39.75
55.13
64.71
69.50
70.52
68.26
63.34
56.22
47.91
39.55
31.85
25.21
19.58
14.64
10.08
5.77
1.63
-2.40
-6.60
-11.46
-17.64
-25.95
-37.00
-50.49
-64.90
-77.27
-83.95
-81.95
-70.05
-49.39
-23.45
3.43
27.58
46.79
60.48
68.85
72.56
71.86
67.27
59.60
50.14
40.38
31.39
23.55
16.69
10.41
4.35
-1.45
-6.72
-11.20
-14.85
-18.18
-21.92
-27.08
-34.53
-44.92
-57.93
-71.92
-83.91
-90.26
-87.77
-75.05
-53.42
-26.30
1.80
26.75
46.13
59.39
67.30
70.94
71.19
68.44
63.08
55.78
47.48
39.01
30.90
23.16
15.60
7.97
0.51
-6.33
-12.08
-16.47
-19.97
-23.45
-27.96
-34.56
-43.73
-54.92
-66.25
-74.91
-77.67
-71.99
-57.17
-34.97
-8.90
16.75
38.36
54.13
64.12
69.46
71.49
70.90
67.82
61.93
53.34
42.59
30.72
18.93
8.30
-0.64
-7.85
-13.55
-18.40
-22.85
-27.32
-32.11
-37.42
-43.58
-50.99
-59.96
-70.08
-79.91
-86.86
-87.94
-80.86
-65.17
-42.61
-16.44
9.58
32.65
51.30
65.35
75.07
80.51
81.54
78.15
70.83
60.84
49.75
38.85
28.82
19.72
11.17
3.01
-4.56
-11.15
-16.41
-20.25
-23.08
-25.53
-28.42
-32.54
-38.43
-46.42
-56.13
-66.26
-74.40
-77.60
-73.31
-60.41
-40.00
-14.95
10.84
34.03
52.73
66.51
75.72
80.72
81.46
77.47
68.84
56.68
43.06
30.54
21.07
15.27
12.31
10.47
7.98
3.97
-1.28
-6.57
-10.59
-12.77
-13.57
-14.31
-16.47
-21.18
-28.80
-39.02
-51.06
-63.56
-74.49
-81.18
-80.88
-71.81
-53.82
-29.14
-1.38
25.43
48.47
66.24
78.30
84.71
85.28
79.92
69.05
54.32
38.47
24.55
14.77
9.51
7.45
6.22
3.68
-0.93
-6.93
-12.63
-16.13
-16.68
-14.91
-12.56
-11.89
-14.87
-22.46
-34.54
-49.67
-65.34
-77.90
-83.60
-79.42
-64.56
-40.74
-11.81
17.30
42.33
60.60
71.29
74.77
71.81
63.14
49.70
33.13
15.82
0.54
-10.50
-16.53
-18.40
-17.96
-17.46
-18.29
-20.69
-24.16
-27.83
-31.07
-34.00
-37.32
-42.10
-49.25
-59.21
-71.73
-85.42
-97.63
-105.08
-104.60
-94.24
-74.25
-46.73
-15.14
16.85
46.41
71.79
92.02
106.58
115.05
117.24
113.72
105.72
95.11
83.82
73.28
64.12
56.28
49.25
42.35
35.15
27.55
19.81
12.25
4.80
-3.22
-12.93
-25.88
-43.18
-64.52
-87.82
-109.19
-123.81
-127.66
-118.82
-98.09
-69.07
-36.61
-5.21
21.98
43.71
59.99
70.92
76.47
76.52
71.25
61.64
49.64
37.25
26.13
16.91
9.30
2.60
-3.65
-9.49
-14.55
-18.59
-21.75
-24.57
-27.85
-32.46
-39.16
-48.38
-60.05
-73.01
-84.76
-91.78
-90.45
-78.51
-56.36
-27.06
4.46
33.17
55.73
70.84
78.96
81.23
78.74
72.17
62.24
49.83
36.45
23.75
12.96
4.42
-2.29
-7.96
-13.21
-18.18
-22.74
-26.65
-29.84
-32.69
-36.18
-41.42
-49.31
-60.14
-73.07
-85.73
-94.65
-96.12
-87.70
-69.26
-43.26
-14.11
13.45
35.76
51.16
59.94
63.44
63.20
60.30
55.36
48.95
41.59
34.00
26.83
20.50
15.12
10.32
5.78
1.09
-4.06
-9.76
-15.88
-22.42
-29.70
-38.41
-49.15
-61.63
-74.00
-82.84
-84.15
-74.83
-54.27
-24.95
8.35
40.08
65.88
83.54
93.11
95.74
93.10
86.61
77.19
65.86
53.73
42.01
31.68
23.20
16.33
10.28
4.15
-2.78
-10.63
-19.13
-27.76
-36.42
-45.47
-55.59
-67.23
-79.66
-90.70
-97.01
-95.41
-84.29
-64.47
-39.04
-12.02
12.89
33.43
48.83
59.36
65.51
67.38
65.04
58.71
49.27
38.13
26.91
16.99
9.26
3.94
0.54
-1.68
-3.78
-6.62
-10.88
-16.97
-25.26
-35.95
-48.68
-62.22
-74.05
-81.03
-80.08
-69.52
-50.06
-24.48
2.94
28.35
49.08
64.28
74.31
80.00
82.03
80.74
76.33
69.15
59.93
49.57
39.08
29.15
20.14
12.04
4.52
-2.66
-9.66
-16.63
-23.79
-31.57
-40.57
-51.12
-62.75
-73.79
-81.31
-82.13
-74.16
-57.16
-33.38
-6.54
19.17
40.59
56.12
65.78
70.39
70.89
67.93
61.95
53.53
43.56
33.16
23.37
14.91
7.91
2.07
-3.14
-8.28
-13.57
-18.90
-24.09
-29.06
-34.14
-39.97
-47.01
-55.04
-62.67
-67.56
-67.01
-59.21
-44.04
-23.55
-1.22
19.33
35.41
46.00
51.68
53.73
53.23
50.77
46.18
39.31
30.50
20.49
10.61
2.23
-3.84
-7.43
-8.98
-9.37
-9.49
-9.86
-10.85
-12.68
-15.80
-20.83
-28.11
-37.07
-45.80
-51.42
-50.96
-42.77
-27.16
-6.56
15.60
36.21
53.30
66.24
75.15
80.09
80.75
76.82
68.53
57.09
44.73
33.75
25.65
20.67
17.84
15.52
12.22
7.19
0.49
-7.28
-15.55
-24.15
-33.47
-43.94
-55.45
-66.63
-74.97
-77.48
-72.12
-58.56
-38.48
-14.94
8.67
29.77
46.95
59.73
68.26
72.60
72.91
69.41
62.65
53.65
43.58
33.58
24.49
16.74
10.34
5.09
0.73
-3.17
-6.89
-10.80
-15.41
-21.33
-29.19
-38.93
-49.51
-58.97
-64.65
-63.85
-55.22
-39.23
-18.27
4.24
24.84
41.22
52.54
59.24
62.32
62.65
60.85
57.20
52.11
46.13
39.81
33.60
27.64
21.85
16.03
10.11
4.51
-0.24
-3.56
-5.30
-5.88
-6.15
-7.30
-10.60
-16.82
-26.15
-37.85
-50.09
-60.23
-65.46
-63.62
-53.92
-37.57
-16.96
4.86
25.42
43.15
57.31
67.66
73.96
75.74
72.76
65.61
55.65
44.89
35.22
27.81
22.75
19.06
15.38
10.72
5.01
-0.96
-5.98
-9.23
-10.71
-11.39
-12.79
-16.25
-22.58
-31.60
-42.41
-53.35
-62.28
-67.00
-65.72
-57.80
-43.71
-25.39
-5.36
13.61
29.68
41.96
50.18
54.32
54.50
51.11
45.02
37.55
30.30
24.56
20.62
17.89
15.37
12.23
8.25
3.74
-0.85
-5.35
-9.97
-15.02
-20.62
-26.54
-32.67
-39.12
-46.57
-55.60
-65.93
-76.00
-82.88
-83.31
-75.00
-57.85
-34.11
-7.70
17.40
38.06
52.78
61.33
64.46
63.30
59.00
52.80
45.88
39.12
32.79
26.83
20.80
14.35
7.43
0.35
-6.36
-12.19
-16.85
-20.24
-22.48
-24.07
-25.88
-29.15
-34.85
-43.10
-52.58
-60.79
-64.63
-61.51
-50.54
-32.90
-11.37
10.62
30.15
45.47
56.09
62.35
64.94
64.39
61.18
55.75
48.74
40.81
32.69
24.78
17.19
9.91
2.88
-3.82
-9.84
-14.97
-19.20
-23.03
-27.36
-33.52
-42.45
-54.32
-67.85
-80.33
-88.35
-88.82
-80.03
-62.59
-39.13
-13.43
11.00
31.74
47.83
59.24
66.16
68.62
66.71
60.95
52.61
43.52
35.38
29.01
24.04
19.33
13.74
6.72
-1.30
-9.26
-16.12
-21.47
-25.50
-29.10
-33.49
-39.68
-48.39
-59.58
-71.99
-83.26
-90.15
-89.61
-79.75
-61.00
-35.96
-8.73
16.44
36.48
50.10
57.49
59.62
57.69
52.56
45.02
36.06
26.75
18.29
11.44
6.41
2.66
-0.58
-4.21
-8.62
-13.57
-18.43
-22.61
-26.20
-30.03
-35.73
-45.01
-58.65
-75.52
-92.12
-103.64
-105.46
-95.22
-73.90
-45.42
-14.57
15.23
43.49
72.48
105.65
145.77
193.35
246.15
299.75
348.17
384.76
403.42
399.89
373.07
326.00
265.26
199.22
135.90
81.28
38.46
7.90
-11.99
-24.12
-32.15
-39.77
-49.84
-63.08
-77.88
-90.85
-98.23
-97.70
-89.53
-76.29
-61.68
-48.81
-39.22
-33.09
-29.98
-29.61
-32.39
-38.98
-49.47
-63.19
-78.76
-94.88
-110.90
-126.66
-141.90
-155.46
-165.56
-170.27
-168.90
-162.30
-152.85
-143.18
-135.09
-129.07
-124.85
-122.12
-120.95
-121.63
-124.03
-127.12
-129.21
-128.74
-125.00
-118.34
-109.72
-99.93
-89.29
-77.55
-64.84
-51.99
-40.51
-32.05
-27.30
-25.38
-24.05
-20.45
-12.44
0.42
16.60
33.23
47.01
55.59
57.92
54.49
46.80
36.90
26.82
18.21
12.40
9.97
11.09
15.31
21.83
29.52
37.10
43.55
47.89
49.96
50.13
49.87
51.03
55.03
62.24
71.65
81.26
89.02
93.63
94.84
93.18
89.24
83.36
75.70
66.32
55.81
44.96
34.54
24.74
14.94
3.77
-10.76
-30.40
-56.06
-86.95
-120.23
-151.34
-175.42
-189.30
-192.36
-187.04
-177.19
-166.09
-154.91
-142.42
-126.35
-105.32
-80.18
-53.61
-28.83
-7.99
9.04
24.01
39.07
55.17
71.58
86.09
96.47
101.52
101.65
98.31
92.61
84.52
72.79
56.09
34.58
10.97
-9.93
-23.07
-25.39
-17.37
-3.05
11.80
22.07
25.30
22.04
15.05
7.55
1.89
-1.05
-1.64
-0.58
1.29
3.48
5.71
7.90
9.78
10.96
10.75
8.42
3.48
-3.87
-12.58
-21.08
-27.72
-31.66
-32.98
-32.50
-31.13
-29.37
-27.04
-23.60
-18.67
-12.38
-5.41
1.31
7.15
11.95
16.12
20.29
24.97
30.32
35.81
40.55
43.24
42.95
39.16
32.17
23.03
13.28
4.52
-1.92
-5.48
-6.43
-5.78
-5.01
-5.40
-7.61
-11.33
-15.57
-18.92
-20.25
-19.20
-16.08
-11.89
-7.51
-3.28
1.04
6.08
12.35
19.87
27.90
35.24
40.57
42.96
42.23
38.74
33.43
27.37
21.68
17.18
14.37
13.02
12.41
11.54
9.43
5.58
0.05
-6.60
-13.76
-20.88
-27.66
-33.77
-38.57
-41.21
-40.62
-36.15
-27.93
-16.88
-4.39
8.22
19.90
30.11
38.28
43.80
45.95
44.24
38.90
30.87
21.87
13.75
8.00
5.20
5.16
6.98
9.47
11.75
13.35
14.32
14.81
15.00
14.57
13.13
10.30
6.02
0.71
-4.89
-9.98
-13.73
-15.35
-14.42
-10.73
-4.40
3.97
13.45
23.00
31.66
38.78
44.04
47.30
48.57
47.92
45.78
42.79
39.68
36.90
34.36
31.52
27.59
21.96
14.52
5.51
-4.46
-14.68
-24.35
-32.60
-38.58
-41.76
-42.04
-40.08
-36.97
-33.61
-30.37
-26.92
-22.47
-16.35
-8.47
0.57
9.67
17.62
23.58
26.96
27.77
26.29
23.20
19.34
15.71
13.11
12.01
12.31
13.20
13.57
12.21
8.45
2.35
-5.21
-13.01
-19.88
-25.27
-29.41
-32.72
-35.55
-37.56
-37.81
-35.34
-29.79
-21.82
-12.80
-4.30
2.92
8.68
13.46
17.89
22.20
26.17
29.48
31.98
33.63
34.68
35.11
34.75
33.40
30.88
27.31
22.94
18.08
12.81
7.12
1.10
-4.87
-10.03
-13.71
-15.65
-16.23
-16.63
-18.18
-21.69
-27.00
-32.92
-37.51
-39.10
-36.41
-29.32
-18.61
-5.74
7.59
19.67
29.08
35.05
37.36
36.49
33.32
29.01
24.56
20.78
18.09
16.49
15.65
15.03
13.90
11.83
8.69
4.82
1.07
-1.99
-3.93
-4.92
-5.61
-6.76
-8.79
-11.67
-14.76
-17.14
-17.82
-16.11
-11.73
-4.86
3.87
13.68
23.54
32.43
39.49
44.17
46.12
45.51
42.71
38.23
32.66
26.52
20.17
14.05
8.50
3.71
-0.05
-2.58
-3.74
-3.54
-2.27
-0.44
1.25
1.96
1.06
-1.48
-5.17
-9.00
-11.69
-12.14
-9.83
-4.91
1.77
8.95
15.29
19.75
21.65
20.83
17.39
11.59
4.01
-4.58
-13.31
-21.20
-27.72
-32.90
-37.17
-41.26
-45.75
-50.70
-55.65
-59.95
-63.11
-65.10
-66.38
-67.50
-68.89
-70.68
-72.56
-74.03
-74.56
-73.61
-70.66
-65.37
-57.39
-46.73
-33.81
-19.54
-5.22
7.94
19.00
27.47
33.26
36.67
37.99
37.69
36.18
33.89
31.25
28.57
26.12
24.03
22.37
21.03
19.83
18.50
16.64
13.87
10.08
5.29
-0.02
-5.11
-9.18
-11.56
-11.85
-9.87
-5.76
0.20
7.52
15.59
23.57
30.60
35.97
39.13
39.99
38.87
36.29
32.89
29.28
25.77
22.37
18.95
15.09
10.58
5.53
0.25
-4.81
-9.40
-13.58
-17.84
-22.61
-28.17
-34.16
-39.68
-43.60
-44.79
-42.66
-37.23
-29.09
-19.10
-8.28
2.46
12.21
19.97
25.01
26.98
25.93
22.57
17.98
13.14
8.68
4.71
0.85
-3.10
-7.23
-11.36
-15.16
-18.27
-20.53
-22.02
-23.03
-24.00
-25.37
-27.55
-30.87
-35.16
-39.89
-44.10
-46.53
-46.03
-41.90
-34.28
-24.05
-12.50
-0.94
9.50
17.91
23.94
27.41
28.41
27.20
24.34
20.69
17.12
14.35
12.65
11.71
10.97
9.76
7.59
4.38
0.31
-4.25
-9.06
-14.03
-19.10
-24.07
-28.36
-31.04
-31.08
-27.81
-21.15
-11.56
0.02
12.14
23.45
32.78
39.43
43.12
43.97
42.28
38.65
33.82
28.51
23.51
19.34
16.21
13.98
12.18
10.25
7.84
4.85
1.36
-2.66
-7.28
-12.82
-19.31
-26.58
-34.08
-40.91
-46.14
-48.82
-48.43
-44.64
-37.77
-28.43
-17.67
-6.81
2.93
10.73
16.31
19.98
22.16
23.17
23.17
22.18
20.27
17.76
15.07
12.44
9.96
7.38
4.41
0.86
-3.28
-7.85
-12.67
-17.63
-22.50
-26.86
-30.13
-31.61
-30.71
-27.11
-20.93
-12.64
-2.95
7.32
17.32
26.40
34.12
40.30
44.85
47.73
48.76
47.74
44.65
39.75
33.72
27.39
21.52
16.44
12.19
8.56
5.34
2.33
-0.75
-4.24
-8.49
-13.72
-19.92
-26.56
-32.81
-37.67
-40.20
-39.71
-35.94
-29.15
-20.11
-9.86
0.46
9.96
18.10
24.85
30.30
34.45
37.04
37.71
36.16
32.33
26.52
19.25
11.25
3.27
-4.05
-10.09
-14.20
-16.00
-15.51
-13.20
-10.01
-7.02
-5.29
-5.39
-7.08
-9.41
-11.18
-11.24
-9.07
-4.88
0.57
6.56
12.69
19.24
26.55
34.48
42.36
49.12
53.88
56.38
57.03
56.66
56.03
55.67
55.20
54.14
52.21
49.92
47.95
46.86
46.78
47.25
47.31
45.27
40.06
31.94
23.33
17.02
15.03
17.88
24.93
34.55
44.14
51.50
55.32
56.26
54.68
50.47
43.23
33.09
20.19
3.70
-17.34
-43.05
-71.23
-99.94
-127.66
-153.62
-177.00
-191.42
-191.31
-175.57
-156.37
-138.60
-124.65
-113.44
-105.99
-102.93
-104.01
-108.59
-114.81
-119.58
-117.81
-106.90
-86.99
-60.52
-30.55
-0.01
27.98
50.76
66.78
76.85
81.21
79.93
73.55
63.87
53.79
46.09
43.53
48.78
64.35
89.83
117.41
136.30
137.45
119.33
87.50
50.42
15.11
-14.20
-36.98
-54.85
-69.04
-80.16
-86.68
-87.33
-81.78
-70.63
-54.89
-35.78
-14.27
9.61
34.37
58.32
78.58
92.19
97.35
94.45
85.69
74.05
62.17
51.03
40.47
29.21
16.48
3.03
-9.04
-17.45
-21.12
-20.41
-17.16
-13.20
-9.58
-5.99
-1.07
6.26
16.33
27.96
39.21
48.28
54.18
56.76
56.19
52.71
46.28
37.37
27.18
17.95
12.39
12.67
19.46
31.59
46.31
60.20
70.44
75.20
73.89
66.88
55.11
39.89
22.57
4.47
-13.02
-28.28
-39.47
-44.74
-42.53
-32.70
-16.80
1.83
18.99
31.24
37.44
38.98
38.79
39.51
41.57
43.24
41.64
34.69
22.52
7.31
-7.91
-20.83
-30.51
-37.17
-41.26
-42.99
-42.41
-40.03
-37.15
-35.72
-37.47
-43.21
-52.76
-64.97
-77.98
-89.30
-95.93
-95.20
-85.78
-68.84
-47.80
-27.24
-10.84
0.10
6.53
10.71
14.07
16.37
16.01
11.20
1.31
-12.66
-28.41
-43.45
-55.59
-63.30
-65.42
-61.29
-51.06
-36.26
-19.88
-5.86
2.09
1.99
-5.57
-17.23
-28.05
-33.10
-29.04
-15.37
5.79
30.35
53.61
71.50
81.40
82.74
76.83
66.54
55.47
46.80
42.39
42.27
44.63
46.67
45.74
40.30
30.31
16.99
2.03
-12.98
-26.74
-38.20
-46.24
-49.78
-48.23
-42.14
-33.51
-25.20
-19.76
-18.29
-19.78
-21.67
-21.10
-16.36
-7.57
3.59
14.71
23.68
29.22
30.78
28.14
21.53
11.61
-0.32
-12.39
-22.86
-30.63
-35.71
-39.09
-42.21
-46.28
-52.09
-60.18
-70.93
-84.85
-102.24
-122.75
-145.02
-166.98
-186.40
-201.76
-212.56
-218.85
-220.47
-216.24
-204.18
-182.67
-151.72
-113.78
-73.19
-34.95
-2.81
20.92
35.28
40.07
35.66
23.37
6.06
-11.50
-24.07
-27.50
-20.62
-5.69
12.85
30.59
45.35
57.50
68.45
78.37
85.04
84.26
72.39
48.88
16.91
-18.19
-52.02
-83.36
-113.78
-144.53
-173.23
-192.97
-194.91
-173.06
-127.80
-66.34
0.26
61.44
110.31
143.98
161.94
164.54
152.50
127.78
94.71
59.54
28.78
6.74
-5.71
-10.43
-10.42
-7.90
-3.25
4.40
15.77
30.58
47.00
61.97
72.33
75.57
69.95
54.23
27.54
-10.58
-59.28
-115.25
-172.30
-222.00
-256.03
-268.76
-259.16
-230.92
-190.72
-145.80
-101.90
-62.55
-29.45
-3.26
15.98
28.97
37.30
43.45
50.03
59.02
71.32
86.91
104.75
122.91
138.49
148.02
148.69
139.84
123.99
106.28
92.59
86.68
88.43
94.06
98.02
95.82
85.81
69.25
48.89
27.11
4.79
-18.29
-42.27
-66.04
-86.83
-101.11
-105.86
-99.81
-83.77
-59.91
-30.69
1.95
36.60
71.95
105.82
135.44
158.13
172.78
180.36
183.49
185.30
188.02
193.00
201.67
216.53
240.96
277.33
324.24
375.03
419.17
445.96
449.33
430.43
396.81
358.87
325.39
300.68
284.47
274.03
266.59
260.81
256.66
254.25
252.80
250.60
245.64
236.63
223.59
207.70
190.65
173.95
158.09
142.62
126.48
108.58
88.26
65.43
40.32
13.37
-14.94
-44.11
-73.37
-101.47
-127.15
-148.92
-165.93
-177.98
-185.51
-189.68
-192.20
-195.34
-201.47
-212.26
-227.59
-244.62
-258.59
-264.55
-260.21
-247.78
-233.77
-226.49
-232.63
-254.63
-290.36
-334.82
-382.70
-429.91
-473.60
-511.01
-538.60
-552.50
-549.99
-530.69
-497.11
-453.28
-403.46
-350.52
-295.98
-240.57
-185.19
-131.40
-81.13
-36.20
2.19
33.88
59.43
80.02
97.17
112.02
124.96
135.08
140.16
137.19
123.57
98.14
62.38
20.56
-21.18
-56.14
-78.90
-86.88
-80.75
-63.74
-40.74
-16.77
3.86
17.74
22.73
18.03
4.69
-14.19
-33.65
-48.27
-53.68
-47.99
-32.47
-10.30
15.12
41.30
67.39
93.70
120.70
148.84
177.48
204.25
225.61
237.78
238.28
227.19
207.85
185.72
167.46
156.71
152.01
147.77
138.01
120.69
99.87
85.00
86.49
112.92
165.02
234.45
306.32
364.73
398.11
401.71
378.54
336.57
288.55
245.89
215.40
198.20
191.30
190.05
189.50
186.74
164.02
113.13
39.16
-41.39
-111.79
-163.47
-193.25
-208.34
-214.62
-216.79
-216.10
-213.51
-210.15
-206.19
-200.14
-189.12
-171.33
-146.64
-118.35
-89.88
-65.09
-47.51
-39.42
-41.02
-50.27
-63.90
-77.95
-89.62
-96.42
-97.69
-94.60
-89.72
-85.44
-83.32
-84.12
-87.58
-93.21
-99.65
-105.34
-108.81
-108.88
-104.95
-96.93
-85.28
-70.67
-54.16
-36.56
-18.74
-1.49
14.63
28.99
41.20
50.78
57.36
60.55
60.10
56.04
49.00
39.94
29.86
19.69
9.88
0.78
-7.42
-14.78
-21.76
-29.32
-38.53
-50.10
-63.39
-76.26
-85.72
-89.21
-85.79
-76.81
-65.20
-53.98
-45.04
-38.50
-33.23
-28.01
-22.13
-15.72
-9.12
-2.48
4.49
12.16
20.44
28.35
34.43
37.35
36.48
32.25
25.71
18.07
10.20
2.44
-5.37
-13.37
-21.26
-28.19
-32.96
-34.32
-31.31
-23.75
-12.30
1.75
16.65
30.60
41.88
49.31
52.23
50.69
45.36
37.26
27.71
18.01
9.18
1.77
-4.20
-9.28
-14.41
-20.67
-29.01
-40.14
-54.03
-69.92
-86.13
-100.25
-109.57
-111.81
-105.78
-91.72
-71.33
-47.25
-22.31
1.12
21.41
37.60
48.94
55.08
55.79
51.50
43.50
33.61
23.89
15.87
10.13
6.41
4.01
2.19
0.59
-0.96
-2.64
-4.89
-7.81
-11.25
-14.30
-15.56
-13.64
-8.02
0.90
11.76
22.97
33.31
42.12
49.21
54.51
57.67
58.34
56.53
52.71
48.04
43.92
41.38
40.65
41.09
41.41
40.21
36.55
30.15
21.36
10.83
-0.86
-13.30
-25.95
-37.99
-48.00
-54.01
-54.17
-47.49
-34.26
-16.33
3.42
22.09
37.40
48.24
54.65
57.31
57.01
54.38
49.69
43.14
35.13
26.31
17.53
9.57
2.83
-2.82
-7.70
-12.20
-16.50
-20.57
-24.52
-28.69
-33.31
-38.33
-42.91
-45.29
-43.56
-36.47
-23.97
-7.55
10.51
27.99
43.20
55.35
64.30
69.90
71.98
70.43
65.43
57.76
48.76
39.82
32.01
25.83
20.99
16.70
12.13
6.59
-0.22
-8.24
-17.36
-27.41
-38.11
-49.12
-59.55
-67.89
-72.49
-71.80
-65.04
-52.59
-36.07
-17.69
0.23
15.89
28.30
37.17
42.71
45.37
45.66
44.03
40.99
36.95
32.33
27.44
22.37
17.08
11.53
5.65
-0.43
-6.40
-11.88
-16.69
-21.17
-26.18
-32.65
-41.01
-50.61
-59.37
-64.60
-63.83
-56.09
-42.22
-24.86
-7.24
7.90
19.04
26.02
29.50
30.37
29.31
26.82
23.24
19.04
14.77
10.87
7.49
4.40
1.12
-2.88
-8.01
-14.42
-21.89
-30.10
-38.75
-47.63
-56.69
-65.67
-73.76
-79.50
-80.82
-75.85
-63.70
-45.20
-22.54
0.99
22.29
39.30
51.16
58.20
61.20
60.97
58.00
52.65
45.01
35.09
22.84
8.13
-8.91
-27.76
-47.29
-65.98
-82.18
-94.96
-104.39
-111.71
-118.85
-127.42
-137.63
-147.73
-154.42
-153.87
-143.49
-123.22
-95.73
-65.80
-38.38
-16.87
-1.77
9.48
21.59
39.47
66.28
102.19
143.72
184.48
216.39
231.62
224.55
193.86
143.55
82.44
22.35
-25.85
-55.43
-66.69
-66.42
-64.49
-69.39
-84.46
-106.83
-128.97
-142.49
-140.70
-120.70
-82.99
-30.47
32.63
101.11
168.90
229.70
277.48
309.21
324.71
327.43
323.36
318.86
318.21
321.88
326.28
324.31
310.70
281.80
238.18
184.62
128.70
78.66
41.25
19.96
12.67
17.38
27.53
36.45
39.45
35.02
24.46
10.32
-5.33
-24.71
-45.01
-67.60
-92.72
-118.93
-143.65
-164.60
-180.99
-193.28
-206.10
-216.08
-225.47
-236.04
-248.28
-261.09
-272.74
-281.97
-264.08
-248.15
-229.72
-212.45
-199.80
-193.20
-191.03
-190.01
-187.08
-180.40
-173.30
-162.70
-154.86
-155.89
-169.11
-193.92
-228.23
-270.76
-320.86
-380.06
-415.15
-402.68
-336.93
-234.62
-121.64
-19.71
58.64
109.87
135.41
144.49
140.91
126.73
103.74
75.67
47.47
22.93
6.20
-1.52
0.43
6.38
10.21
8.19
1.55
-5.68
-9.17
-5.68
5.51
23.90
45.62
67.60
85.21
98.73
111.01
125.68
146.15
174.08
208.84
246.09
279.16
300.58
305.25
290.90
259.04
214.87
165.97
120.30
83.67
58.93
45.84
42.49
45.83
52.83
61.11
69.12
76.15
81.61
84.89
85.12
81.90
75.10
65.30
53.64
41.29
28.92
16.61
3.82
-9.98
-24.55
-39.05
-52.27
-63.11
-71.23
-77.10
-81.96
-86.89
-92.46
-97.97
-101.61
-101.02
-94.28
-80.76
-61.37
-38.55
-15.21
6.02
23.44
36.51
45.35
50.41
51.79
49.67
44.25
36.01
25.89
15.07
4.80
-3.80
-9.89
-13.26
-14.46
-14.87
-16.41
-20.94
-29.56
-42.20
-57.80
-74.66
-90.92
-104.63
-113.79
-116.45
-111.05
-97.28
-76.42
-51.45
-25.83
-2.33
18.10
36.12
52.84
68.60
82.29
91.66
94.92
91.69
83.92
75.60
71.87
78.17
98.79
135.36
185.49
242.25
295.36
333.74
348.96
337.74
302.76
251.02
191.17
130.98
76.11
30.08
-5.07
-28.25
-39.27
-39.26
-30.78
-17.59
-3.82
6.86
12.20
11.41
5.56
-3.30
-12.74
-21.01
-27.64
-33.02
-37.86
-42.28
-45.43
-45.94
-43.00
-37.18
-30.53
-26.08
-26.39
-32.45
-43.11
-55.42
-65.48
-69.68
-65.56
-52.58
-32.38
-8.80
12.81
26.74
28.70
17.50
-4.24
-30.92
-55.66
-72.86
-79.90
-77.41
-68.65
-57.43
-46.90
-38.65
-32.92
-29.24
-27.00
-25.79
-25.09
-24.43
-23.05
-20.24
-15.59
-9.40
-2.50
3.85
8.42
10.58
10.53
9.20
7.89
7.73
9.06
11.31
13.22
13.50
11.47
7.21
1.48
-4.81
-11.08
-17.09
-22.85
-28.14
-32.44
-34.83
-34.37
-30.35
-22.56
-11.52
1.66
15.52
28.54
39.42
47.52
52.68
55.23
55.55
53.96
50.70
46.21
41.14
36.21
32.04
28.83
26.26
23.76
20.78
17.09
12.78
8.18
3.65
-0.50
-4.16
-7.56
-11.36
-16.53
-23.97
-33.92
-45.64
-57.32
-66.61
-71.64
-71.50
-66.61
-58.22
-47.74
-36.29
-24.60
-13.37
-3.54
3.50
6.29
3.73
-4.51
-17.74
-34.37
-52.01
-67.66
-78.00
-80.24
-73.07
-57.90
-38.76
-21.66
-12.75
-16.09
-32.12
-57.36
-85.61
-109.99
-125.39
-130.03
-125.63
-116.78
-108.75
-105.44
-107.76
-113.34
-117.61
-115.61
-104.03
-82.31
-52.30
-17.36
18.96
53.64
84.37
109.43
127.45
137.69
140.55
137.64
131.76
125.80
121.63
119.57
118.40
116.16
111.26
103.27
92.79
80.88
68.34
55.17
40.97
25.23
7.85
-10.83
-30.03
-48.56
-64.80
-76.43
-80.72
-75.22
-58.78
-32.60
-0.35
32.60
60.73
80.08
89.29
89.49
83.79
76.05
69.64
66.83
68.03
71.87
75.72
76.76
73.00
64.18
51.83
38.52
26.72
17.84
12.08
8.67
6.48
4.55
2.16
-1.05
-5.40
-11.07
-17.89
-25.42
-32.92
-39.41
-43.91
-45.62
-43.99
-39.14
-31.74
-23.04
-14.59
-7.62
-2.72
0.17
1.48
1.62
0.71
-1.25
-4.16
-7.62
-10.88
-13.14
-13.87
-13.30
-12.16
-11.56
-12.40
-15.11
-19.60
-25.25
-31.32
-37.35
-43.30
-49.50
-56.39
-64.12
-72.28
-79.97
-85.97
-89.08
-88.39
-83.48
-74.19
-60.86
-44.32
-25.98
-7.76
8.27
20.30
27.29
29.18
26.84
21.66
15.27
9.06
3.97
0.49
-1.40
-2.00
-1.91
-1.83
-2.46
-4.41
-8.09
-13.54
-20.39
-27.82
-34.41
-38.66
-39.28
-35.68
-28.26
-18.03
-6.47
5.10
15.75
25.05
32.74
38.48
41.77
42.00
38.86
32.44
23.59
13.53
3.71
-4.40
-9.60
-11.40
-10.41
-8.34
-7.83
-11.38
-20.21
-33.47
-48.38
-61.07
-67.89
-66.90
-57.95
-42.50
-22.66
-0.39
22.63
44.78
64.12
78.77
87.13
88.82
84.93
77.75
70.05
64.12
61.12
60.71
61.82
63.27
64.52
65.78
67.98
72.01
78.21
86.02
93.88
99.82
102.09
99.95
94.10
86.80
81.36
81.11
88.08
101.85
119.25
135.23
144.61
144.06
133.19
114.63
92.78
71.99
55.12
42.93
34.41
27.44
19.90
9.91
-3.70
-21.34
-42.49
-65.75
-89.01
-109.91
-126.51
-137.62
-143.16
-143.80
-140.85
-135.97
-130.89
-127.25
-126.07
-127.43
-129.99
-131.44
-129.09
-121.10
-107.32
-89.56
-70.76
-53.84
-40.53
-31.19
-25.37
-22.59
-22.95
-26.83
-34.30
-44.73
-56.64
-68.02
-76.86
-81.62
-81.25
-75.19
-63.57
-47.13
-27.50
-7.16
11.14
24.69
31.62
31.33
24.70
13.96
2.20
-7.70
-13.73
-15.52
-14.23
-11.89
-10.44
-11.00
-13.86
-18.33
-23.53
-28.55
-32.85
-36.12
-38.22
-38.99
-38.56
-37.54
-36.86
-37.76
-41.23
-47.44
-55.63
-64.22
-71.65
-77.11
-80.69
-83.02
-84.57
-85.05
-83.28
-77.78
-67.37
-52.15
-33.36
-13.18
5.99
21.83
32.81
38.59
39.70
37.46
33.44
28.92
24.55
20.20
15.12
8.52
0.27
-9.14
-18.50
-26.63
-33.00
-38.06
-43.37
-50.97
-62.67
-79.30
-100.26
-123.25
-144.38
-159.03
-162.80
-153.34
-131.58
-102.23
-72.64
-50.51
-40.58
-42.80
-52.24
-61.00
-61.45
-48.86
-22.66
14.05
56.16
98.57
137.40
170.27
196.31
215.73
229.30
237.96
242.27
242.22
237.07
225.66
206.88
180.24
146.42
107.52
67.16
30.12
1.21
-15.66
-18.96
-10.31
5.77
23.16
36.09
40.81
36.62
25.45
10.64
-4.42
-16.97
-25.36
-29.13
-28.98
-26.52
-23.75
-22.48
-23.40
-25.92
-28.31
-28.99
-27.49
-24.99
-24.08
-27.05
-34.38
-43.73
-50.41
-49.16
-36.12
-10.86
23.41
60.78
94.74
120.00
133.78
136.02
128.67
114.58
96.53
76.82
57.08
38.37
21.62
7.48
-3.85
-12.68
-20.16
-27.72
-36.51
-46.96
-58.59
-70.29
-80.96
-89.47
-94.48
-94.19
-86.29
-68.93
-42.23
-9.30
23.86
50.20
64.26
64.41
53.68
38.34
25.41
19.53
21.52
28.64
36.47
41.44
42.71
42.05
42.52
46.24
52.60
58.19
57.67
46.15
21.09
-16.21
-60.39
-103.24
-135.62
-150.24
-143.86
-118.26
-79.62
-36.35
4.11
37.30
62.25
80.18
92.59
99.67
100.53
94.33
82.05
66.99
53.92
46.99
47.70
54.17
62.13
67.11
66.17
58.68
45.66
28.56
8.42
-13.89
-36.65
-56.77
-69.95
-72.21
-61.75
-40.01
-11.52
17.84
42.82
60.11
68.39
67.55
57.57
38.41
10.87
-22.34
-55.92
-83.06
-97.74
-97.40
-84.25
-64.42
-45.27
-32.10
-26.43
-25.91
-26.43
-24.66
-19.48
-11.59
-2.15
8.55
21.45
37.71
57.45
78.76
98.00
111.01
114.86
108.80
94.35
74.64
53.41
34.14
19.37
10.49
7.55
9.51
14.48
20.27
25.05
27.58
27.14
23.25
15.42
3.22
-13.61
-34.80
-59.39
-85.79
-111.87
-134.99
-151.98
-159.39
-154.08
-134.42
-101.12
-57.55
-9.23
37.26
76.05
102.98
116.24
116.26
105.18
86.15
62.63
37.57
12.86
-10.54
-32.20
-51.57
-67.62
-78.82
-83.79
-82.13
-74.67
-63.25
-49.98
-36.58
-24.15
-13.62
-6.04
-2.55
-3.89
-9.38
-16.67
-22.37
-23.42
-18.54
-8.83
2.76
12.97
19.59
22.28
22.09
20.61
18.98
17.80
17.17
16.93
16.59
15.08
11.00
2.85
-10.11
-27.13
-46.06
-63.96
-78.17
-87.26
-91.30
-91.63
-90.29
-89.43
-90.80
-95.47
-103.43
-113.11
-121.46
-124.47
-118.40
-101.07
-72.94
-37.11
1.65
38.53
70.22
95.39
114.23
127.59
135.78
138.36
134.49
123.57
106.03
83.85
59.98
37.72
19.87
7.85
1.52
-0.38
0.32
2.05
3.66
4.18
2.50
-2.75
-12.58
-26.48
-41.80
-53.85
-57.73
-50.45
-32.52
-8.08
16.67
36.01
46.86
49.43
46.17
40.14
33.38
26.45
18.87
10.20
0.45
-9.69
-19.24
-27.42
-33.74
-38.03
-40.07
-39.65
-36.84
-32.30
-27.39
-24.12
-24.47
-29.47
-38.50
-48.90
-56.84
-58.60
-52.05
-37.51
-17.62
3.88
23.59
39.55
51.37
59.63
64.84
66.93
65.28
59.28
49.00
35.32
19.87
4.32
-10.02
-22.42
-32.59
-40.60
-46.52
-50.27
-51.95
-52.02
-51.52
-51.58
-53.01
-55.37
-56.92
-55.03
-47.32
-32.89
-13.04
9.09
29.83
46.31
57.46
64.06
67.90
70.73
73.30
75.19
75.11
71.76
64.40
53.22
39.63
25.45
12.51
1.96
-6.00
-12.07
-17.53
-23.60
-31.37
-41.50
-54.06
-68.26
-82.03
-92.22
-95.26
-88.55
-71.61
-46.64
-17.79
10.19
33.77
51.47
63.76
72.16
77.95
81.62
82.70
80.46
74.48
65.25
53.99
42.18
31.23
21.72
13.45
5.71
-2.39
-11.40
-21.61
-32.97
-45.48
-58.72
-71.64
-82.17
-87.56
-85.13
-73.48
-53.31
-27.43
0.11
25.50
46.25
61.56
72.00
78.52
81.82
82.03
79.02
72.61
63.13
51.39
38.66
26.42
15.98
8.20
3.14
-0.09
-2.89
-6.66
-12.40
-20.57
-30.98
-43.31
-56.84
-70.20
-81.03
-86.23
-82.83
-69.33
-46.64
-18.11
11.51
37.65
57.36
69.84
75.96
77.11
74.58
68.96
60.68
50.38
39.22
28.87
20.76
15.69
13.45
13.04
13.20
12.83
11.50
9.25
6.41
2.81
-2.29
-9.94
-20.87
-34.52
-48.59
-59.40
-62.97
-56.63
-40.32
-16.78
9.33
33.23
51.54
63.16
69.03
70.85
70.06
67.26
62.30
54.75
44.65
32.79
20.29
8.40
-2.15
-11.11
-18.74
-25.44
-31.42
-36.73
-41.32
-45.38
-49.52
-54.78
-61.78
-70.10
-77.66
-81.29
-77.97
-66.20
-46.87
-22.95
1.65
23.77
41.81
55.57
65.37
71.17
72.25
67.70
57.61
43.23
27.19
12.46
1.37
-5.12
-7.69
-8.11
-8.48
-10.48
-14.93
-21.78
-30.49
-40.62
-51.69
-62.99
-72.90
-78.92
-78.16
-68.46
-49.65
-23.90
4.69
31.74
53.85
69.67
79.66
85.19
87.44
86.73
82.71
74.85
63.39
49.44
34.81
21.30
10.02
1.04
-6.68
-14.46
-23.25
-33.14
-43.37
-53.12
-61.81
-69.28
-75.61
-80.29
-82.01
-79.09
-70.06
-54.58
-33.87
-10.37
13.13
34.19
51.25
63.73
71.57
74.99
74.21
69.49
61.50
51.28
40.39
30.43
22.74
17.60
14.04
10.45
4.94
-3.44
-14.38
-26.57
-38.29
-48.35
-56.31
-61.93
-64.72
-63.50
-56.68
-43.36
-24.10
-1.01
22.83
44.41
61.90
74.86
83.71
89.12
91.34
90.08
84.98
76.05
63.97
50.14
36.25
23.73
13.47
5.46
-1.19
-7.95
-16.53
-28.34
-43.88
-62.44
-81.84
-98.61
-108.86
-109.40
-98.94
-78.71
-52.11
-23.59
2.78
24.49
40.72
51.84
58.57
61.36
60.15
54.91
46.16
35.05
23.29
12.44
3.44
-3.52
-9.03
-14.00
-19.31
-25.52
-32.90
-41.66
-51.95
-63.81
-76.38
-87.76
-94.82
-94.30
-83.94
-63.79
-36.44
-6.30
21.94
44.77
60.71
70.04
73.93
73.50
69.48
62.42
53.03
42.40
31.87
22.49
14.83
8.96
4.43
0.90
-1.88
-4.13
-6.36
-9.44
-14.50
-22.29
-32.50
-43.37
-51.81
-54.56
-49.27
-35.83
-16.29
5.76
26.39
42.82
53.76
59.27
60.06
56.85
50.14
40.40
28.52
15.81
4.00
-5.46
-11.92
-15.58
-17.39
-18.50
-19.84
-21.74
-24.27
-27.37
-31.47
-37.05
-44.30
-52.22
-58.56
-60.19
-54.43
-40.42
-19.60
4.51
27.69
46.68
59.99
67.87
71.61
72.48
70.94
66.88
60.07
50.67
39.41
27.20
14.78
2.65
-9.03
-20.16
-30.20
-38.37
-43.99
-46.99
-48.32
-49.69
-52.81
-58.22
-64.82
-69.72
-69.67
-62.28
-47.39
-27.10
-4.87
15.85
32.79
45.19
53.54
58.40
60.02
58.09
52.47
43.55
32.62
21.48
11.84
4.81
0.41
-2.01
-3.49
-5.24
-8.02
-12.49
-19.14
-28.26
-39.84
-52.97
-65.66
-74.96
-77.85
-72.36
-58.63
-39.05
-17.54
1.82
16.25
25.16
29.75
31.83
32.91
33.28
32.57
30.08
25.63
19.62
12.88
6.06
-0.61
-7.39
-14.78
-23.25
-32.86
-43.43
-54.50
-65.35
-75.13
-82.53
-86.14
-84.71
-77.55
-64.88
-47.77
-28.07
-7.87
10.85
26.76
39.18
47.81
52.67
53.89
51.60
46.13
38.14
28.75
19.23
10.82
4.38
0.21
-1.97
-2.87
-3.31
-4.14
-6.13
-9.99
-16.06
-23.76
-31.55
-36.87
-36.91
-29.71
-15.15
4.60
25.71
44.12
57.10
64.06
66.43
66.55
66.37
66.50
66.22
64.15
59.20
51.14
40.62
28.92
17.33
6.76
-2.30
-9.78
-16.00
-21.67
-27.88
-35.81
-46.07
-58.09
-69.93
-78.42
-80.23
-73.16
-57.14
-34.27
-8.19
17.04
38.12
53.08
61.45
63.73
61.06
54.93
46.80
37.94
29.22
20.89
12.77
4.59
-3.71
-11.75
-18.89
-24.69
-29.18
-32.82
-36.52
-40.97
-46.50
-53.23
-60.67
-67.80
-73.16
-74.84
-71.07
-60.66
-43.75
-21.94
2.06
25.23
45.08
59.93
69.01
72.32
70.23
63.73
54.38
44.01
34.62
27.56
23.22
20.93
19.36
17.05
12.89
6.43
-2.43
-13.37
-25.98
-39.80
-53.89
-67.06
-77.85
-84.59
-85.86
-80.96
-70.05
-54.32
-35.77
-16.55
1.38
16.58
28.27
36.37
41.12
43.14
43.05
41.42
38.76
35.23
30.92
25.99
20.94
16.38
12.85
10.50
8.85
6.96
3.68
-1.81
-9.72
-19.66
-30.65
-41.10
-49.18
-53.07
-51.15
-42.72
-28.10
-8.74
12.98
34.41
53.05
67.11
75.61
78.58
76.73
71.20
63.26
53.91
43.82
33.37
22.79
12.30
2.41
-6.18
-12.82
-17.04
-18.94
-19.18
-18.85
-19.35
-21.92
-27.25
-35.39
-45.55
-56.12
-65.07
-70.20
-69.71
-62.48
-48.59
-29.32
-6.96
15.66
35.99
52.15
63.35
69.92
72.75
72.96
71.56
69.23
66.44
63.42
60.46
57.65
54.87
51.55
47.10
41.17
33.87
26.05
19.01
13.79
10.65
8.82
6.54
1.69
-7.38
-20.92
-37.65
-54.70
-68.37
-75.37
-73.51
-62.56
-44.12
-20.94
3.58
26.45
45.50
59.71
68.83
73.45
74.54
73.17
70.38
66.90
63.41
60.13
57.35
55.24
53.94
53.13
52.22
50.34
46.66
40.72
32.65
23.08
12.73
2.26
-8.22
-19.12
-30.91
-43.83
-57.60
-71.03
-82.57
-90.33
-92.67
-88.51
-77.71
-60.89
-39.66
-16.28
6.41
25.71
39.76
47.82
50.79
50.41
48.80
47.33
46.37
45.30
43.19
39.42
34.05
27.76
21.29
15.09
9.00
2.61
-4.42
-12.12
-20.26
-28.67
-37.73
-48.22
-61.19
-76.99
-94.27
-109.97
-119.79
-119.76
-107.70
-84.12
-52.24
-16.98
16.61
44.65
64.95
76.85
80.64
77.19
67.69
53.74
37.31
20.61
5.57
-6.50
-15.09
-20.43
-23.31
-24.60
-25.12
-25.49
-26.15
-27.65
-30.66
-35.97
-44.17
-55.30
-68.20
-80.50
-88.90
-90.28
-82.87
-67.08
-45.28
-21.19
1.69
21.04
36.12
47.47
56.00
62.33
66.40
67.75
65.93
60.88
53.09
43.52
33.26
23.27
14.23
6.38
-0.22
-5.77
-10.45
-14.49
-18.21
-22.30
-27.70
-35.18
-44.74
-55.16
-63.96
-67.98
-64.73
-53.42
-35.41
-13.76
7.88
26.61
40.85
50.39
55.82
57.92
57.15
53.77
48.24
41.27
33.86
27.01
21.64
18.09
16.23
15.26
14.23
12.17
8.43
2.82
-4.36
-12.78
-22.41
-33.38
-45.68
-58.37
-69.45
-76.02
-75.28
-65.77
-48.24
-25.44
-1.30
20.51
37.59
49.19
55.86
58.68
58.66
56.25
51.74
45.38
37.79
29.86
22.52
16.46
12.04
9.00
6.82
4.81
2.35
-1.11
-5.94
-12.40
-20.81
-31.20
-43.20
-55.40
-65.45
-70.56
-68.23
-57.30
-38.68
-15.10
9.77
32.50
51.07
64.98
74.76
81.05
83.87
82.48
76.11
64.68
49.28
32.25
16.32
3.66
-4.68
-8.96
-10.47
-10.78
-11.35
-13.42
-17.79
-24.92
-34.95
-47.44
-61.42
-75.28
-86.87
-94.06
-95.27
-89.76
-78.00
-61.40
-41.82
-21.07
-0.72
17.84
33.24
44.04
49.12
48.04
41.46
31.09
19.18
7.90
-1.26
-7.85
-12.12
-14.65
-16.01
-16.42
-15.74
-13.70
-10.12
-5.26
-0.18
3.55
4.40
1.56
-4.43
-11.68
-17.63
-19.97
-17.63
-11.16
-2.49
5.93
12.03
14.77
14.27
11.42
7.29
2.81
-1.59
-5.76
-9.75
-13.43
-16.52
-18.75
-20.10
-20.84
-21.62
-22.96
-24.92
-27.09
-28.75
-29.51
-29.93
-31.19
-34.32
-39.15
-43.73
-44.88
-39.56
-26.34
-6.33
17.19
40.08
58.94
72.04
79.28
81.66
80.40
76.62
71.13
64.97
59.14
54.50
51.56
50.03
49.17
47.73
44.78
39.72
32.72
24.31
15.10
5.37
-5.18
-17.31
-31.60
-47.64
-63.71
-76.85
-83.85
-82.58
-72.73
-56.15
-35.97
-15.60
2.35
16.29
25.61
30.10
29.66
24.67
15.98
5.41
-4.80
-12.63
-17.06
-18.67
-19.03
-20.16
-23.23
-28.16
-33.54
-37.52
-38.67
-36.61
-32.08
-26.39
-20.78
-15.80
-11.62
-8.08
-5.10
-2.70
-0.67
1.63
5.06
10.15
16.64
23.01
27.16
27.31
22.82
14.59
4.58
-5.17
-13.58
-20.68
-27.26
-34.10
-41.20
-47.63
-51.89
-52.54
-48.86
-41.33
-31.66
-22.30
-15.79
-13.74
-16.01
-20.43
-23.22
-20.04
-7.70
14.60
44.69
77.79
107.77
128.55
135.60
126.58
102.07
65.28
21.69
-22.03
-59.47
-85.72
-98.64
-99.06
-90.20
-76.42
-61.89
-49.55
-40.89
-36.13
-34.44
-34.40
-34.17
-31.79
-25.51
-14.34
1.84
22.57
46.78
73.37
100.89
126.95
147.98
159.69
158.46
143.21
116.63
84.53
54.06
31.01
17.60
12.38
11.52
11.47
10.60
9.47
9.69
12.15
15.97
18.62
17.35
10.55
-1.18
-15.33
-28.53
-38.04
-42.75
-43.16
-40.86
-36.89
-31.45
-23.60
-12.31
2.43
18.92
33.98
44.01
46.37
40.48
27.83
11.31
-5.78
-20.56
-31.08
-36.69
-37.85
-36.34
-34.85
-36.51
-43.98
-58.32
-78.40
-100.69
-120.08
-131.25
-130.50
-116.93
-92.91
-63.16
-32.96
-6.37
14.97
31.42
44.45
55.03
62.89
66.78
65.30
57.97
45.54
29.67
11.98
-6.24
-24.12
-40.75
-54.85
-65.04
-70.38
-71.24
-69.56
-68.26
-69.79
-74.98
-82.31
-88.50
-90.01
-84.46
-71.63
-53.29
-32.07
-10.36
10.29
29.39
46.83
62.26
74.73
82.89
85.48
81.97
72.95
59.98
45.18
30.69
17.98
7.47
-1.23
-8.98
-16.71
-25.01
-34.15
-43.86
-53.47
-61.75
-67.02
-67.53
-62.05
-50.32
-33.59
-14.08
5.62
23.28
37.59
48.13
54.92
58.13
57.78
53.98
47.12
37.98
27.86
18.10
9.80
3.54
-0.86
-4.14
-7.49
-12.38
-20.33
-32.29
-48.18
-66.38
-83.76
-96.28
-100.34
-93.95
-77.43
-53.36
-25.53
2.44
27.98
49.67
66.83
78.79
84.57
83.44
75.48
62.25
46.52
31.42
19.45
11.36
6.44
3.17
0.27
-2.81
-5.94
-8.95
-12.37
-17.38
-25.33
-36.80
-50.67
-64.14
-73.56
-75.66
-68.88
-53.74
-32.46
-8.12
16.27
38.41
56.86
70.70
79.56
83.55
83.14
79.26
73.09
65.73
58.00
50.36
43.05
36.37
30.58
25.85
22.10
19.02
16.10
12.82
8.71
3.31
-3.89
-13.60
-26.27
-41.44
-57.26
-70.55
-77.63
-75.70
-63.78
-43.19
-17.16
10.48
36.53
58.98
76.96
90.43
99.51
104.36
105.19
102.43
96.84
89.43
81.34
73.50
66.64
61.17
57.19
54.60
52.95
51.47
49.23
45.30
39.13
30.84
20.83
9.90
-1.22
-12.12
-22.72
-33.33
-44.31
-56.03
-68.58
-81.76
-94.68
-105.65
-112.41
-112.65
-104.81
-88.78
-66.12
-39.64
-12.42
12.99
35.04
53.11
67.24
77.37
83.39
85.18
83.10
78.00
71.31
64.49
58.48
53.76
50.02
46.64
43.11
39.33
35.51
31.92
28.48
24.66
19.78
13.33
5.33
-3.55
-12.22
-19.76
-25.81
-30.76
-35.65
-41.85
-50.52
-61.98
-75.33
-88.36
-97.79
-100.28
-93.42
-76.95
-52.69
-24.34
3.92
28.47
46.95
58.55
63.51
62.67
57.23
48.95
39.89
32.41
28.46
29.02
33.89
42.15
52.30
62.74
71.55
76.51
75.24
66.00
48.96
26.71
4.13
-13.20
-21.10
-18.61
-8.40
4.15
13.17
13.94
4.47
-14.41
-39.55
-66.44
-90.35
-107.41
-114.97
-112.11
-99.74
-80.06
-56.30
-31.87
-9.55
8.99
23.70
35.68
46.48
57.32
68.33
78.24
84.96
86.30
81.07
69.57
53.70
36.39
20.75
9.31
3.31
2.75
6.43
12.37
18.22
21.99
22.29
18.65
11.86
3.34
-5.13
-12.15
-17.15
-20.50
-23.25
-27.00
-33.12
-42.62
-55.68
-71.34
-87.51
-101.15
-108.86
-107.80
-96.84
-76.94
-51.03
-23.21
2.56
23.46
38.41
47.77
52.95
55.58
57.03
58.20
59.42
60.58
61.29
61.04
59.32
56.05
51.58
46.80
42.89
40.90
41.48
44.25
47.91
50.33
49.46
43.81
33.32
19.34
4.14
-10.01
-21.77
-31.28
-40.08
-50.29
-63.81
-81.39
-102.20
-123.91
-142.89
-155.02
-156.55
-145.21
-121.01
-86.45
-46.20
-5.63
30.38
58.56
77.66
88.09
91.29
89.02
82.94
74.57
65.29
56.05
47.64
40.22
33.70
27.85
22.58
17.97
14.31
11.72
9.94
8.31
5.85
1.74
-4.50
-12.68
-22.14
-31.89
-41.03
-48.96
-55.64
-61.35
-66.82
-72.95
-80.35
-88.85
-97.01
-102.32
-101.98
-93.79
-77.28
-53.87
-26.53
1.30
26.92
48.72
66.11
78.95
87.02
89.91
87.52
80.35
69.59
56.97
44.10
32.08
21.34
11.97
3.99
-2.42
-6.87
-9.05
-9.06
-7.57
-5.69
-4.50
-4.78
-6.76
-10.21
-14.64
-19.87
-26.02
-33.53
-42.74
-53.62
-65.82
-78.60
-90.99
-101.82
-109.58
-112.57
-109.22
-98.54
-80.68
-57.06
-30.16
-2.73
22.68
44.16
60.52
71.21
76.24
76.21
72.24
65.85
58.64
51.85
46.18
41.68
38.05
34.75
31.45
27.95
24.41
21.09
18.16
15.64
13.32
10.81
7.75
4.04
-0.17
-4.58
-8.93
-13.22
-17.80
-23.18
-30.14
-39.41
-51.42
-66.08
-82.17
-97.23
-107.81
-110.53
-103.33
-86.61
-63.21
-37.51
-13.66
5.81
20.73
32.45
42.65
51.97
59.78
64.95
66.66
65.02
61.04
56.02
50.67
45.28
39.84
34.39
29.28
24.77
20.54
15.67
8.96
-0.19
-11.26
-22.70
-32.53
-39.38
-43.04
-44.50
-45.46
-47.91
-53.51
-63.15
-76.50
-91.78
-105.68
-114.06
-113.16
-100.89
-77.93
-47.57
-14.46
16.91
43.55
64.63
80.69
92.52
100.46
104.07
102.66
96.17
85.66
73.28
61.30
51.45
44.15
38.68
33.91
29.10
24.28
20.05
17.02
15.00
13.10
10.07
5.13
-1.69
-9.76
-18.73
-29.18
-42.80
-61.71
-87.00
-117.51
-149.28
-176.59
-193.63
-196.41
-184.27
-159.74
-127.54
-92.77
-59.41
-29.66
-4.18
17.15
34.42
47.56
56.57
61.99
65.09
67.50
70.45
74.33
78.45
81.35
81.50
77.94
70.65
60.58
49.41
38.90
30.53
25.05
22.33
21.33
20.41
17.50
10.66
-1.28
-18.27
-38.49
-58.58
-74.39
-82.22
-79.87
-67.51
-47.37
-22.87
2.39
25.52
44.47
57.96
65.35
66.86
63.52
57.34
50.64
45.47
42.95
42.78
43.67
44.03
42.63
39.14
33.95
27.85
21.47
14.95
7.88
-0.50
-10.87
-23.58
-38.44
-54.64
-70.74
-84.81
-94.55
-97.76
-92.95
-80.02
-60.41
-36.77
-12.10
11.25
32.08
50.25
66.00
79.28
89.43
95.44
96.88
94.14
88.46
81.36
73.83
66.14
57.79
48.14
37.07
25.23
13.71
3.64
-4.32
-10.22
-14.69
-18.62
-23.13
-29.29
-38.06
-49.95
-64.50
-79.90
-93.14
