1630943603.00
64.000000
-0.00
-0.00
-0.00
-0.00
-0.00
-0.00
-0.00
-0.00
-0.00
-0.00
0.00
0.01
0.01
-0.00
-0.03
-0.05
-0.05
0.00
0.13
0.36
0.66
1.01
1.37
1.72
2.06
2.40
2.79
3.24
3.80
4.42
5.06
5.66
6.20
6.68
7.15
7.68
8.31
9.14
10.09
11.04
11.88
12.56
13.14
13.76
14.65
15.96
17.91
20.32
22.90
25.38
27.58
29.57
31.68
34.32
37.81
42.54
48.15
54.10
59.83
64.97
69.58
74.14
79.34
85.71
93.76
103.00
112.62
121.73
129.77
136.75
143.30
150.75
157.77
166.64
177.95
191.79
206.97
220.57
228.25
225.36
208.53
176.87
132.76
80.05
23.07
-34.94
-92.44
-149.16
-205.23
-260.37
-313.74
-363.87
-409.83
-450.91
-486.50
-515.74
-537.23
-549.22
-549.96
-538.37
-514.21
-478.67
-433.88
-382.45
-327.02
-269.84
-212.63
-156.66
-102.95
-52.37
-5.90
35.58
71.43
101.35
125.50
144.38
158.69
169.15
176.37
180.75
182.57
182.07
179.51
175.23
169.65
163.18
156.15
148.81
141.30
133.69
126.02
118.33
110.69
103.16
95.80
88.68
81.83
75.25
68.95
62.95
57.25
51.86
46.78
42.03
37.59
33.45
29.61
26.07
22.81
19.83
17.11
14.67
12.48
10.54
8.83
7.35
6.07
4.97
4.05
3.27
2.62
2.09
1.65
1.30
1.02
0.80
0.63
0.50
0.41
0.35
0.31
0.29
0.29
0.30
0.32
0.35
0.39
0.43
0.47
0.52
0.57
0.62
0.67
0.73
0.79
0.86
0.93
1.01
1.10
1.20
1.31
1.43
1.57
1.73
1.90
2.09
2.30
2.54
2.80
3.08
3.40
3.74
4.13
4.54
4.99
5.48
6.01
6.59
7.20
7.86
8.57
9.33
10.13
10.99
11.89
12.85
13.84
14.90
16.02
17.21
18.46
19.78
21.14
22.50
23.82
25.01
25.96
26.54
26.63
26.10
24.86
22.86
20.08
16.60
12.48
7.94
3.16
-1.62
-6.16
-10.28
-13.79
-16.58
-18.62
-19.89
-20.45
-20.41
-19.90
-19.06
-18.04
-16.97
-15.91
-14.90
-13.91
-12.86
-11.71
-10.43
-8.99
-7.42
-5.74
-3.94
-2.07
-0.05
2.19
4.61
7.19
9.88
12.58
15.20
17.64
19.90
22.07
24.36
26.73
29.21
31.78
34.31
36.69
38.84
40.85
43.01
45.80
49.27
53.48
58.28
63.30
68.07
72.22
75.64
78.63
81.78
85.17
88.80
92.26
94.71
94.98
91.91
84.37
71.26
55.31
37.76
19.45
0.78
-18.26
-38.14
-59.64
-83.69
-111.02
-141.30
-173.12
-203.02
-226.29
-238.49
-237.30
-223.58
-201.32
-176.23
-153.76
-137.96
-130.21
-129.61
-133.84
-140.03
-145.42
-147.73
-145.47
-138.21
-126.95
-113.42
-99.55
-86.70
-75.36
-64.97
-54.32
-42.35
-28.67
-14.27
-1.05
8.76
13.64
13.41
9.47
4.10
-0.27
-1.95
-0.26
4.56
11.82
20.62
30.15
39.88
49.78
60.42
72.84
87.99
105.87
124.95
142.39
155.00
160.64
159.24
152.95
145.22
139.35
137.22
138.79
142.39
145.53
145.86
141.75
132.44
117.96
98.89
76.53
52.85
30.40
11.86
-0.74
-6.76
-7.15
-4.17
-0.55
1.52
1.04
-1.63
-5.29
-8.62
-10.85
-11.96
-12.48
-13.12
-14.36
-16.38
-19.13
-22.54
-26.51
-30.86
-35.16
-38.69
-40.65
-40.53
-38.46
-35.25
-32.05
-29.91
-29.33
-30.10
-31.61
-33.19
-34.49
-35.40
-35.99
-36.21
-35.78
-34.38
-31.78
-28.08
-23.69
-19.19
-15.08
-11.68
-9.07
-7.15
-5.81
-5.03
-4.82
-5.24
-6.25
-7.74
-9.46
-11.12
-12.49
-13.46
-14.13
-14.75
-15.63
-17.00
-18.93
-21.29
-23.81
-26.28
-28.61
-30.91
-33.43
-36.44
-40.00
-43.96
-47.89
-51.33
-53.95
-55.65
-56.58
-57.15
-57.78
-58.95
-61.03
-64.31
-68.94
-74.85
-81.75
-89.21
-96.78
-104.24
-111.79
-120.15
-130.37
-143.37
-159.29
-177.07
-194.51
-208.79
-217.33
-218.64
-212.47
-199.66
-181.42
-158.76
-132.16
-101.67
-67.08
-28.03
15.81
64.37
116.53
169.63
219.33
260.49
288.79
302.24
302.02
291.91
276.79
260.89
246.75
235.03
225.25
216.63
208.64
201.01
193.49
185.56
176.61
166.19
154.45
142.26
130.96
121.72
114.96
109.99
105.23
98.97
90.09
78.62
65.64
52.78
41.34
31.93
24.41
18.21
12.71
7.54
2.58
-2.10
-6.32
-9.88
-12.64
-14.60
-15.99
-17.21
-18.62
-20.23
-21.65
-22.17
-21.18
-18.61
-15.10
-11.80
-9.88
-10.01
-12.01
-15.02
-17.91
-19.83
-20.50
-20.28
-19.91
-20.01
-20.92
-22.50
-24.33
-25.96
-27.01
-27.27
-26.51
-24.53
-21.23
-16.75
-11.63
-6.71
-2.90
-0.82
-0.62
-1.96
-4.26
-7.03
-9.90
-12.67
-15.15
-17.02
-17.94
-17.76
-16.58
-14.81
-12.98
-11.58
-10.84
-10.81
-11.48
-12.90
-15.20
-18.52
-22.78
-27.46
-31.73
-34.55
-35.12
-33.16
-29.09
-23.86
-18.66
-14.43
-11.68
-10.39
-10.28
-10.95
-12.15
-13.66
-15.23
-16.49
-17.06
-16.70
-15.47
-13.71
-11.93
-10.53
-9.61
-9.02
-8.52
-7.91
-7.26
-6.78
-6.69
-7.11
-7.99
-9.15
-10.56
-12.25
-14.33
-16.76
-19.24
-21.19
-21.91
-20.85
-17.84
-13.16
-7.45
-1.51
3.98
8.52
11.83
13.81
14.51
14.20
13.29
12.32
11.85
12.23
13.54
15.59
17.97
20.27
22.14
23.42
24.08
24.18
23.72
22.71
21.12
18.91
16.09
12.68
8.74
4.38
-0.19
-4.60
-8.37
-10.97
-11.94
-11.05
-8.37
-4.24
0.79
6.08
10.99
15.00
17.68
18.63
17.53
14.19
8.68
1.56
-6.22
-13.44
-19.05
-22.51
-23.97
-24.14
-23.97
-24.19
-25.07
-26.51
-28.14
-29.66
-30.91
-31.89
-32.68
-33.39
-34.21
-35.43
-37.42
-40.44
-44.51
-49.16
-53.56
-56.60
-57.32
-55.11
-49.97
-42.37
-33.10
-23.05
-13.12
-4.14
3.09
7.83
9.69
8.63
5.20
0.29
-5.04
-9.78
-13.10
-14.40
-13.41
-10.19
-5.23
0.54
5.88
9.65
11.06
9.98
6.79
2.27
-2.83
-7.91
-12.69
-17.16
-21.43
-25.67
-30.05
-34.65
-39.33
-43.73
-47.30
-49.36
-49.39
-47.15
-42.80
-36.84
-29.87
-22.40
-14.72
-6.98
0.62
7.73
13.89
18.82
22.70
26.18
30.10
34.93
40.46
45.67
49.19
49.93
47.66
43.16
38.15
35.14
37.04
46.79
66.54
96.59
134.65
175.89
214.20
244.25
263.54
273.19
277.04
279.54
283.38
288.18
290.94
287.54
274.62
250.63
216.04
173.04
125.24
77.43
34.87
2.18
-18.20
-27.06
-28.44
-28.06
-31.24
-40.98
-57.36
-78.17
-100.40
-121.30
-138.97
-152.19
-160.09
-162.19
-158.77
-151.04
-141.05
-131.00
-122.52
-116.21
-111.70
-108.11
-104.61
-100.93
-97.50
-95.31
-95.49
-98.81
-105.26
-113.97
-123.33
-131.45
-136.65
-137.93
-135.11
-128.76
-119.82
-109.28
-97.99
-86.60
-75.76
-66.11
-58.19
-52.27
-48.15
-45.23
-42.66
-39.67
-35.86
-31.30
-26.40
-21.80
-17.99
-15.23
-13.49
-12.42
-11.59
-10.54
-9.05
-7.07
-4.84
-2.70
-1.02
-0.11
-0.13
-1.08
-2.81
-5.06
-7.47
-9.69
-11.43
-12.56
-13.08
-13.14
-12.99
-12.96
-13.47
-14.98
-17.77
-21.74
-26.34
-30.63
-33.61
-34.52
-33.11
-29.62
-24.73
-19.14
-13.52
-8.25
-3.51
0.73
4.55
7.95
10.86
13.11
14.68
15.73
16.77
18.43
21.28
25.49
30.75
36.29
41.28
44.98
47.03
47.37
46.18
43.79
40.55
36.83
32.89
28.91
24.96
21.01
17.03
13.07
9.20
5.51
2.03
-1.27
-4.42
-7.46
-10.37
-13.23
-16.11
-19.14
-22.24
-25.05
-26.83
-26.76
-24.30
-19.49
-13.10
-6.31
-0.29
4.30
7.45
9.59
11.25
12.66
13.74
14.18
13.82
12.77
11.45
10.40
10.05
10.56
11.76
13.29
14.76
15.88
16.55
16.85
16.92
16.84
16.55
15.80
14.32
11.98
8.93
5.64
2.74
0.77
-0.05
0.16
0.88
1.51
1.51
0.55
-1.49
-4.57
-8.50
-13.06
-17.89
-22.51
-26.32
-28.69
-29.14
-27.55
-24.23
-19.89
-15.36
-11.41
-8.41
-6.36
-4.96
-3.87
-2.88
-1.96
-1.19
-0.58
-0.05
0.59
1.43
2.41
3.23
3.56
3.16
2.13
0.86
-0.15
-0.56
-0.47
-0.29
-0.75
-2.48
-5.95
-11.21
-17.85
-25.06
-31.74
-36.84
-39.82
-40.99
-41.68
-43.96
-49.91
-60.71
-76.08
-94.27
-112.72
-129.15
-142.39
-152.75
-161.94
-172.38
-186.60
-206.47
-232.57
-263.67
-296.55
-326.31
-347.43
-355.22
-347.24
-324.00
-288.69
-245.97
-200.58
-156.18
-114.95
-77.92
-45.38
-17.39
6.32
26.42
44.22
61.45
80.20
102.58
130.26
163.79
201.91
241.33
277.02
303.52
316.47
314.04
297.65
271.49
241.30
212.69
189.85
174.88
167.95
167.98
173.33
182.31
193.22
204.14
212.91
217.67
217.79
214.50
210.37
207.77
207.25
207.01
203.98
195.93
183.12
168.29
154.95
145.27
138.81
133.14
125.62
115.11
102.43
89.46
77.69
67.32
57.56
47.55
37.15
27.04
18.29
11.68
7.29
4.50
2.23
-0.52
-4.42
-9.58
-15.61
-21.79
-27.34
-31.70
-34.71
-36.60
-37.88
-39.16
-40.89
-43.23
-45.95
-48.59
-50.65
-51.81
-52.01
-51.40
-50.32
-49.20
-48.44
-48.36
-49.09
-50.44
-51.95
-52.92
-52.63
-50.60
-46.77
-41.50
-35.42
-29.24
-23.52
-18.58
-14.50
-11.23
-8.68
-6.85
-5.76
-5.40
-5.69
-6.41
-7.23
-7.85
-8.12
-8.08
-7.89
-7.79
-7.92
-8.28
-8.74
-9.23
-9.73
-10.37
-11.31
-12.65
-14.29
-16.01
-17.45
-18.36
-18.71
-18.77
-18.92
-19.56
-20.89
-22.87
-25.38
-28.29
-31.54
-35.08
-38.72
-41.96
-44.09
-44.41
-42.56
-38.75
-33.67
-28.20
-22.96
-18.16
-13.59
-8.95
-4.10
0.71
4.98
8.34
10.61
11.99
12.85
13.48
13.95
14.11
13.77
12.86
11.59
10.29
9.29
8.78
8.72
8.84
8.88
8.58
7.85
6.73
5.33
3.82
2.30
0.81
-0.67
-2.22
-3.88
-5.62
-7.38
-9.09
-10.75
-12.49
-14.58
-17.27
-20.73
-24.89
-29.41
-33.70
-37.07
-38.85
-38.57
-36.09
-31.63
-25.75
-19.17
-12.58
-6.50
-1.17
3.39
7.30
10.66
13.50
15.77
17.46
18.55
19.15
19.30
19.08
18.49
17.61
16.63
15.92
15.75
16.19
17.01
17.78
18.05
17.58
16.44
14.83
12.97
10.93
8.78
6.63
4.73
3.39
2.73
2.61
2.57
2.13
0.94
-1.00
-3.52
-6.39
-9.51
-12.93
-16.71
-20.72
-24.60
-27.73
-29.40
-29.10
-26.59
-22.05
-16.08
-9.53
-3.24
2.17
6.48
9.87
12.71
15.29
17.72
19.83
21.42
22.36
22.75
22.79
22.74
22.67
22.55
22.28
21.81
21.19
20.53
19.93
19.47
19.14
18.96
18.82
18.49
17.67
16.07
13.52
10.24
6.74
3.66
1.48
0.30
-0.20
-0.58
-1.39
-3.05
-5.66
-9.15
-13.29
-17.70
-21.87
-25.14
-26.87
-26.57
-24.16
-20.04
-14.90
-9.51
-4.55
-0.36
2.95
5.45
7.30
8.67
9.76
10.69
11.52
12.16
12.49
12.44
12.11
11.69
11.36
11.13
10.80
10.13
9.02
7.63
6.31
5.38
4.94
4.71
4.32
3.44
2.02
0.23
-1.73
-3.80
-6.09
-8.75
-11.77
-14.89
-17.71
-19.95
-21.63
-23.07
-24.73
-26.84
-29.25
-31.41
-32.57
-32.17
-29.97
-26.08
-20.91
-15.05
-9.04
-3.33
1.74
6.04
9.56
12.33
14.38
15.69
16.23
16.08
15.46
14.69
14.07
13.71
13.52
13.24
12.68
11.80
10.74
9.71
8.86
8.22
7.70
7.21
6.63
5.88
4.86
3.51
1.85
0.04
-1.70
-3.30
-4.92
-6.97
-9.87
-13.84
-18.65
-23.74
-28.42
-32.15
-34.76
-36.27
-36.69
-35.97
-33.96
-30.65
-26.27
-21.36
-16.45
-11.88
-7.68
-3.65
0.37
4.30
7.85
10.64
12.42
13.24
13.34
13.04
12.62
12.19
11.83
11.60
11.63
12.00
12.73
13.74
14.86
15.91
16.72
17.19
17.21
16.65
15.41
13.56
11.25
8.82
6.58
4.66
3.07
1.69
0.34
-1.12
-2.82
-4.90
-7.52
-10.78
-14.51
-18.24
-21.21
-22.62
-21.91
-18.97
-14.17
-8.25
-2.03
3.77
8.73
12.67
15.64
17.80
19.34
20.34
20.86
20.95
20.67
20.21
19.67
19.10
18.36
17.19
15.35
12.88
10.10
7.55
5.75
4.91
4.79
4.86
4.58
3.58
1.88
-0.31
-2.71
-5.12
-7.51
-9.89
-12.23
-14.44
-16.53
-18.58
-20.83
-23.44
-26.32
-28.95
-30.56
-30.36
-27.91
-23.34
-17.30
-10.74
-4.52
0.82
5.12
8.50
11.19
13.31
14.80
15.49
15.23
14.07
12.32
10.47
9.02
8.31
8.33
8.79
9.31
9.64
9.72
9.65
9.48
9.11
8.27
6.69
4.33
1.47
-1.42
-3.92
-5.81
-7.19
-8.31
-9.43
-10.73
-12.26
-14.09
-16.40
-19.37
-23.02
-27.10
-31.08
-34.21
-35.82
-35.46
-33.03
-28.86
-23.58
-17.99
-12.79
-8.43
-4.91
-1.91
0.97
3.94
6.93
9.64
11.69
13.00
13.65
13.89
13.89
13.63
13.03
12.07
10.95
10.02
9.60
9.73
10.18
10.46
10.15
9.06
7.28
5.05
2.63
0.12
-2.46
-5.03
-7.44
-9.46
-10.97
-12.09
-13.24
-14.87
-17.35
-20.72
-24.67
-28.63
-31.97
-34.10
-34.58
-33.16
-29.85
-24.86
-18.66
-11.84
-4.95
1.52
7.25
12.00
15.61
18.02
19.28
19.61
19.40
19.04
18.80
18.81
19.06
19.48
20.04
20.66
21.27
21.70
21.79
21.47
20.80
19.98
19.16
18.38
17.49
16.23
14.48
12.29
9.86
7.45
5.15
2.87
0.48
-2.11
-4.84
-7.54
-10.08
-12.43
-14.59
-16.48
-17.81
-18.22
-17.37
-15.20
-11.96
-8.05
-3.86
0.39
4.66
8.88
12.88
16.37
19.07
20.83
21.61
21.44
20.44
18.73
16.59
14.45
12.76
11.88
11.91
12.57
13.47
14.20
14.50
14.26
13.43
11.95
9.77
6.94
3.69
0.38
-2.54
-4.76
-6.26
-7.28
-8.27
-9.73
-12.03
-15.33
-19.41
-23.77
-27.61
-30.08
-30.52
-28.56
-24.37
-18.58
-12.09
-5.81
-0.41
3.81
6.87
8.92
10.15
10.68
10.63
10.13
9.43
8.73
8.22
7.99
8.04
8.31
8.64
8.86
8.74
8.13
7.01
5.54
4.00
2.65
1.62
0.74
-0.24
-1.59
-3.47
-5.80
-8.47
-11.28
-14.14
-17.05
-19.98
-23.00
-26.10
-29.28
-32.43
-35.28
-37.34
-38.06
-37.01
-34.09
-29.62
-24.23
-18.58
-13.10
-7.97
-3.09
1.58
5.94
9.71
12.61
14.50
15.44
15.67
15.48
15.08
14.61
14.16
13.78
13.49
13.25
13.00
12.67
12.26
11.81
11.39
10.92
10.23
9.03
7.12
4.54
1.51
-1.58
-4.44
-6.98
-9.24
-11.31
-13.26
-15.09
-16.87
-18.76
-20.99
-23.62
-26.39
-28.69
-29.74
-28.93
-26.07
-21.49
-15.78
-9.61
-3.46
2.32
7.43
11.48
14.19
15.49
15.63
15.31
15.24
15.94
17.51
19.67
21.87
23.66
24.72
25.01
24.58
23.64
22.34
20.96
19.76
18.92
18.48
18.31
18.13
17.66
16.66
15.03
12.72
9.82
6.52
3.15
0.11
-2.30
-4.07
-5.57
-7.37
-9.87
-13.04
-16.26
-18.58
-19.14
-17.58
-14.17
-9.59
-4.59
0.32
4.95
9.23
13.08
16.28
18.51
19.60
19.53
18.57
17.03
15.26
13.57
12.09
10.93
10.07
9.45
8.97
8.54
8.10
7.60
7.02
6.28
5.29
4.00
2.48
0.86
-0.69
-2.07
-3.28
-4.43
-5.64
-7.08
-8.87
-11.14
-14.07
-17.80
-22.30
-27.19
-31.83
-35.32
-36.91
-36.16
-33.09
-28.17
-22.20
-15.98
-10.21
-5.33
-1.44
1.57
4.01
6.14
8.16
10.04
11.62
12.69
13.13
12.97
12.47
11.86
11.34
10.89
10.41
9.75
8.94
8.12
7.48
7.07
6.79
6.35
5.45
3.95
1.89
-0.53
-3.08
-5.56
-7.88
-10.00
-11.91
-13.66
-15.40
-17.39
-19.87
-22.99
-26.65
-30.51
-34.01
-36.51
-37.45
-36.48
-33.50
-28.77
-22.82
-16.34
-10.04
-4.38
0.37
4.26
7.39
9.84
11.65
12.85
13.56
14.02
14.58
15.43
16.54
17.63
18.29
18.17
17.16
15.40
13.20
10.85
8.58
6.56
4.84
3.48
2.51
1.86
1.38
0.91
0.29
-0.60
-1.79
-3.34
-5.30
-7.73
-10.65
-14.03
-17.67
-21.27
-24.41
-26.55
-27.17
-25.86
-22.51
-17.39
-11.08
-4.41
1.90
7.37
11.82
15.29
17.93
19.79
20.85
21.15
20.79
19.97
18.89
17.72
16.51
15.33
14.30
13.58
13.42
13.85
14.72
15.67
16.32
16.33
15.59
14.11
11.99
9.32
6.24
2.90
-0.48
-3.65
-6.44
-8.84
-11.00
-13.07
-15.07
-16.85
-18.08
-18.38
-17.38
-14.93
-11.04
-6.04
-0.42
5.14
9.98
13.61
15.87
16.92
17.09
16.72
15.98
14.93
13.54
11.94
10.39
9.24
8.70
8.73
9.07
9.38
9.38
8.92
7.92
6.34
4.12
1.24
-2.07
-5.42
-8.31
-10.41
-11.78
-12.87
-14.27
-16.56
-19.93
-24.22
-28.92
-33.34
-36.71
-38.32
-37.66
-34.55
-29.30
-22.62
-15.46
-8.68
-2.82
1.98
5.78
8.69
10.78
12.04
12.55
12.49
12.10
11.58
11.00
10.31
9.46
8.51
7.67
7.09
6.77
6.46
5.77
4.43
2.38
-0.15
-2.80
-5.24
-7.38
-9.31
-11.25
-13.41
-16.01
-19.16
-22.86
-26.97
-31.07
-34.53
-36.58
-36.61
-34.34
-29.94
-23.89
-16.93
-9.77
-3.08
2.63
7.00
9.91
11.52
12.25
12.67
13.24
14.13
15.22
16.23
16.83
16.90
16.44
15.56
14.38
12.93
11.22
9.25
7.15
5.10
3.30
1.87
0.78
-0.20
-1.38
-3.04
-5.45
-8.67
-12.68
-17.26
-22.11
-26.78
-30.72
-33.35
-34.15
-32.80
-29.27
-23.91
-17.36
-10.47
-4.03
1.41
5.69
8.97
11.66
14.01
16.10
17.76
18.81
19.18
19.03
18.61
18.10
17.49
16.69
15.64
14.48
13.51
12.98
12.87
12.91
12.72
11.97
10.62
8.76
6.55
4.06
1.20
-2.03
-5.51
-8.96
-12.05
-14.49
-16.10
-16.73
-16.28
-14.57
-11.58
-7.42
-2.49
2.71
7.70
12.13
15.84
18.82
21.08
22.60
23.37
23.37
22.71
21.53
20.01
18.32
16.65
15.19
14.09
13.43
13.05
12.66
11.85
10.41
8.37
6.06
3.84
1.87
0.05
-2.00
-4.61
-7.94
-11.81
-15.89
-19.80
-23.16
-25.64
-26.80
-26.24
-23.74
-19.39
-13.76
-7.62
-1.72
3.46
7.82
11.47
14.52
16.96
18.65
19.46
19.37
18.49
17.09
15.42
13.72
12.22
11.06
10.33
9.97
9.75
9.31
8.35
6.63
4.18
1.17
-2.10
-5.33
-8.32
-10.92
-13.15
-15.20
-17.46
-20.44
-24.50
-29.54
-34.85
-39.19
-41.25
-40.19
-35.98
-29.37
-21.56
-13.62
-6.20
0.53
6.69
12.33
17.35
21.44
24.32
25.80
25.90
24.73
22.54
19.68
16.55
13.60
11.20
9.54
8.63
8.30
8.25
8.16
7.68
6.50
4.39
1.32
-2.43
-6.36
-9.89
-12.67
-14.71
-16.50
-18.73
-22.04
-26.57
-31.93
-37.16
-41.11
-42.69
-41.24
-36.72
-29.66
-21.06
-12.05
-3.59
3.69
9.55
14.01
17.16
19.07
19.88
19.79
19.21
18.54
18.05
17.77
17.47
16.86
15.81
14.41
12.87
11.31
9.65
7.65
5.02
1.68
-2.27
-6.52
-10.79
-14.85
-18.64
-22.17
-25.57
-29.02
-32.88
-37.56
-43.39
-50.42
-58.23
-65.93
-72.34
-76.33
-77.26
-75.17
-70.72
-65.01
-59.14
-53.88
-49.47
-45.54
-41.25
-35.54
-27.53
-16.79
-3.53
11.42
26.97
42.10
56.16
68.88
80.24
90.19
98.72
105.86
111.77
116.54
119.99
121.36
119.53
113.51
103.04
88.78
72.17
54.69
37.19
19.70
1.70
-17.32
-37.39
-57.82
-77.42
-94.78
-108.56
-117.44
-120.16
-115.55
-102.84
-82.01
-54.02
-20.64
15.92
53.37
89.70
123.05
151.62
173.80
188.57
195.84
196.72
193.19
187.38
180.93
174.49
167.95
160.80
152.66
143.11
131.64
117.42
99.53
77.35
51.18
22.32
-6.97
-34.12
-56.90
-73.98
-85.19
-91.51
-94.64
-96.31
-97.64
-98.78
-99.09
-97.63
-93.77
-87.65
-80.08
-72.12
-64.66
-58.12
-52.42
-47.38
-42.87
-38.97
-35.89
-33.79
-32.61
-32.14
-32.12
-32.30
-32.47
-32.49
-32.25
-31.64
-30.71
-29.56
-28.46
-27.61
-27.19
-27.21
-27.64
-28.43
-29.56
-31.01
-32.59
-34.07
-35.19
-35.83
-36.12
-36.33
-36.67
-37.04
-36.98
-35.91
-33.36
-29.24
-23.88
-17.84
-11.73
-5.94
-0.68
3.98
8.05
11.53
14.30
16.26
17.30
17.44
16.83
15.82
14.83
14.22
14.08
14.31
14.56
14.53
14.10
13.33
12.38
11.24
9.75
7.58
4.52
0.69
-3.48
-7.43
-10.83
-13.87
-17.15
-21.24
-26.30
-31.72
-36.32
-38.87
-38.67
-35.88
-31.40
-26.41
-21.80
-17.89
-14.40
-10.86
-6.87
-2.53
1.58
4.47
5.20
3.19
-1.40
-7.59
-13.86
-18.72
-21.26
-21.56
-20.64
-20.09
-21.56
-26.21
-34.30
-44.88
-55.66
-63.28
-64.08
-55.34
-36.44
-9.58
20.50
47.71
66.28
72.38
65.08
46.34
19.95
-9.65
-38.65
-64.31
-85.02
-99.88
-108.35
-110.04
-104.85
-93.11
-75.73
-54.21
-30.29
-5.60
18.84
42.62
65.88
88.66
110.22
128.74
141.68
147.02
144.60
136.55
126.43
117.47
111.03
106.18
100.85
93.55
84.58
75.84
69.47
66.35
65.52
64.86
62.31
57.06
49.58
41.03
32.42
24.22
16.47
9.21
2.64
-2.96
-7.31
-10.38
-12.30
-13.25
-13.24
-12.23
-10.19
-7.22
-3.62
0.43
4.76
9.40
14.24
18.95
22.93
25.43
25.94
24.38
21.14
16.89
12.35
8.05
4.35
1.50
-0.31
-0.97
-0.51
0.82
2.63
4.49
6.09
7.24
7.86
8.01
7.81
7.60
7.79
8.77
10.56
12.62
13.86
13.00
9.07
1.88
-7.91
-18.94
-29.69
-38.94
-45.97
-50.63
-53.18
-54.20
-54.45
-54.64
-55.30
-56.59
-58.37
-60.32
-62.10
-63.49
-64.28
-64.26
-63.14
-60.66
-56.91
-52.26
-47.30
-42.51
-38.06
-33.75
-29.33
-24.61
-19.64
-14.52
-9.20
-3.44
3.08
10.44
18.28
25.85
32.39
37.31
40.47
41.97
42.07
40.99
39.02
36.55
34.05
32.00
30.50
29.15
27.09
23.42
17.80
10.86
4.04
-1.00
-3.06
-2.01
1.39
5.98
10.78
15.31
19.41
22.88
25.23
25.66
23.43
18.21
10.29
0.44
-10.30
-20.89
-30.45
-38.30
-44.01
-47.55
-49.19
-49.47
-49.03
-48.36
-47.76
-47.37
-47.20
-47.19
-47.32
-47.61
-48.05
-48.66
-49.25
-49.43
-48.57
-45.99
-41.27
-34.52
-26.40
-17.92
-10.01
-3.18
2.59
7.66
12.36
16.77
20.60
23.52
25.27
25.92
25.63
24.64
23.05
20.95
18.52
16.15
14.32
13.40
13.40
13.95
14.44
14.23
12.97
10.55
7.17
3.17
-1.00
-4.89
-8.11
-10.39
-11.83
-12.80
-13.91
-15.64
-18.14
-21.00
-23.46
-24.64
-23.92
-21.11
-16.47
-10.55
-4.07
2.31
8.03
12.69
16.14
18.38
19.58
19.93
19.56
18.52
16.88
14.82
12.67
10.83
9.60
9.00
8.76
8.50
7.88
6.80
5.33
3.56
1.51
-0.95
-3.93
-7.42
-11.10
-14.45
-17.07
-18.92
-20.47
-22.51
-25.75
-30.36
-35.69
-40.51
-43.42
-43.49
-40.58
-35.28
-28.57
-21.40
-14.45
-8.01
-2.24
2.67
6.48
8.97
10.03
9.79
8.61
6.87
4.89
2.83
0.74
-1.32
-3.22
-4.86
-6.22
-7.49
-9.13
-11.55
-14.93
-18.89
-22.52
-24.62
-24.04
-20.07
-12.52
-1.72
11.48
25.91
40.00
52.04
60.45
64.27
63.57
59.56
54.33
50.18
48.92
51.43
57.55
66.28
76.25
85.90
93.74
98.40
98.76
94.15
84.76
71.86
57.66
44.88
35.71
30.90
29.18
27.90
24.30
17.07
7.12
-2.92
-10.18
-13.25
-12.96
-11.98
-13.32
-18.89
-28.67
-41.02
-53.52
-64.08
-71.53
-75.70
-77.17
-76.87
-75.83
-74.82
-74.18
-73.78
-73.12
-71.68
-69.05
-65.03
-59.58
-52.66
-44.32
-34.79
-24.62
-14.60
-5.62
1.59
6.68
9.76
11.34
12.03
12.40
12.74
13.05
13.08
12.53
11.27
9.41
7.39
5.78
5.08
5.52
6.97
8.96
10.84
12.00
12.05
10.85
8.55
5.51
2.17
-1.01
-3.71
-5.85
-7.62
-9.38
-11.54
-14.28
-17.43
-20.53
-22.90
-23.89
-22.98
-19.99
-15.03
-8.57
-1.31
5.93
12.46
17.78
21.68
24.15
25.27
25.11
23.86
21.86
19.68
17.98
17.22
17.50
18.45
19.52
20.20
20.26
19.71
18.63
16.96
14.59
11.43
7.60
3.53
-0.30
-3.45
-5.89
-7.83
-9.72
-12.01
-15.06
-19.08
-24.10
-29.86
-35.79
-40.98
-44.33
-44.86
-42.10
-36.22
-27.97
-18.52
-8.99
-0.30
7.06
12.90
17.31
20.51
22.76
24.36
25.55
26.45
27.07
27.37
27.25
26.63
25.50
23.91
21.95
19.81
17.80
16.23
15.35
15.17
15.36
15.40
14.76
13.09
10.43
7.10
3.49
-0.14
-3.72
-7.33
-11.10
-15.13
-19.48
-24.17
-29.17
-34.24
-38.93
-42.49
-44.12
-43.23
-39.68
-33.84
-26.37
-18.05
-9.50
-1.09
6.94
14.35
20.84
26.01
29.51
31.14
30.98
29.46
27.26
25.17
23.84
23.63
24.45
25.86
27.28
28.27
28.57
28.26
27.47
26.31
24.71
22.54
19.73
16.40
12.90
9.64
6.91
4.73
2.84
0.85
-1.60
-4.71
-8.50
-12.95
-18.02
-23.64
-29.62
-35.46
-40.42
-43.62
-44.33
-42.14
-37.20
-30.03
-21.50
-12.57
-4.09
3.33
9.41
14.17
17.80
20.47
22.27
23.22
23.41
22.97
22.22
21.40
20.62
19.81
18.79
17.52
16.11
14.89
14.20
14.18
14.66
15.22
15.32
14.52
12.56
9.48
5.57
1.28
-2.82
-6.23
-8.66
-10.20
-11.22
-12.35
-14.17
-17.02
-20.82
-25.13
-29.22
-32.33
-33.76
-33.00
-29.85
-24.45
-17.31
-9.30
-1.40
5.59
11.24
15.52
18.62
20.69
21.70
21.52
20.22
18.16
15.97
14.29
13.47
13.38
13.63
13.73
13.40
12.60
11.42
9.94
8.11
5.90
3.32
0.55
-2.14
-4.50
-6.45
-8.00
-9.31
-10.56
-12.01
-13.96
-16.73
-20.55
-25.43
-31.01
-36.57
-41.10
-43.62
-43.42
-40.25
-34.45
-26.78
-18.28
-9.96
-2.59
3.43
8.11
11.71
14.62
17.12
19.24
20.83
21.71
21.77
21.16
20.20
19.19
18.28
17.39
16.33
14.98
13.47
12.13
11.31
11.11
11.32
11.38
10.67
8.79
5.67
1.57
-3.00
-7.49
-11.46
-14.63
-17.02
-18.84
-20.56
-22.65
-25.54
-29.36
-33.90
-38.64
-42.79
-45.41
-45.61
-42.77
-36.66
-27.62
-16.52
-4.54
7.19
17.80
26.91
34.42
40.32
44.48
46.72
47.00
45.60
43.29
40.98
39.43
38.86
38.94
38.97
38.24
36.33
33.23
29.16
24.44
19.33
14.01
8.63
3.39
-1.49
-5.81
-9.46
-12.45
-14.91
-17.10
-19.31
-21.89
-25.15
-29.20
-33.98
-39.06
-43.78
-47.32
-48.87
-47.85
-44.10
-37.94
-30.08
-21.51
-13.20
-5.85
0.18
4.86
8.42
11.15
13.34
15.16
16.80
18.28
19.58
20.45
20.60
19.71
17.77
15.11
12.42
10.39
9.43
9.44
9.83
9.93
9.24
7.73
5.73
3.62
1.56
-0.55
-2.94
-5.70
-8.70
-11.65
-14.42
-17.17
-20.24
-23.90
-28.01
-31.89
-34.51
-34.90
-32.54
-27.55
-20.58
-12.52
-4.25
3.60
10.54
16.29
20.63
23.40
24.54
24.08
22.28
19.54
16.44
13.55
11.40
10.27
10.15
10.76
11.69
12.53
12.94
12.66
11.56
9.52
6.58
2.94
-1.02
-4.84
-8.17
-10.94
-13.41
-16.05
-19.34
-23.47
-28.22
-32.95
-36.74
-38.65
-37.93
-34.29
-28.00
-19.82
-10.88
-2.29
5.15
11.04
15.37
18.36
20.19
20.91
20.57
19.32
17.47
15.55
14.05
13.26
13.16
13.55
14.03
14.25
13.93
12.85
10.85
7.95
4.33
0.40
-3.30
-6.37
-8.69
-10.47
-12.16
-14.31
-17.34
-21.54
-26.92
-33.16
-39.51
-44.76
-47.57
-46.77
-41.95
-33.66
-23.22
-12.24
-2.09
6.52
13.45
18.78
22.61
24.98
25.96
25.86
25.22
24.61
24.32
24.28
24.20
23.67
22.61
21.11
19.33
17.36
15.09
12.42
9.35
6.12
3.08
0.50
-1.56
-3.27
-5.04
-7.20
-10.08
-13.90
-18.79
-24.71
-31.33
-37.89
-43.28
-46.29
-45.98
-42.02
-34.82
-25.38
-15.00
-4.87
4.07
11.34
16.79
20.57
23.03
24.62
25.75
26.76
27.74
28.65
29.32
29.60
29.36
28.48
26.93
24.73
22.08
19.33
16.92
15.20
14.25
13.85
13.55
12.80
11.26
8.77
5.38
1.26
-3.32
-8.02
-12.55
-16.72
-20.62
-24.57
-28.93
-33.83
-38.92
-43.25
-45.62
-45.06
-41.18
-34.42
-25.78
-16.51
-7.60
0.38
7.24
12.99
17.67
21.24
23.62
24.66
24.22
22.14
18.39
13.09
6.68
-0.13
-6.55
-11.81
-15.45
-17.28
-17.45
-16.34
-14.62
-13.08
-12.46
-13.00
-14.18
-14.65
-12.58
-6.48
3.91
17.31
31.15
42.41
48.71
48.97
43.49
33.56
20.83
7.00
-6.33
-17.63
-25.57
-29.29
-28.73
-24.64
-18.43
-11.64
-5.52
-0.66
2.86
5.41
7.49
9.55
11.87
14.44
17.03
19.26
20.78
21.46
21.44
20.96
20.14
18.90
16.99
14.22
10.71
6.82
2.95
-0.65
-4.01
-7.36
-10.92
-14.70
-18.64
-22.68
-26.99
-31.85
-37.42
-43.38
-48.89
-52.81
-54.20
-52.66
-48.48
-42.31
-34.79
-26.35
-17.18
-7.53
2.22
11.54
19.93
27.13
33.07
37.81
41.36
43.64
44.62
44.43
43.33
41.68
39.70
37.47
35.05
32.58
30.32
28.52
27.33
26.59
26.00
25.20
24.00
22.35
20.25
17.67
14.65
11.27
7.76
4.43
1.51
-1.03
-3.51
-6.32
-9.83
-14.18
-19.37
-25.29
-31.78
-38.47
-44.71
-49.53
-51.93
-51.20
-47.21
-40.48
-31.96
-22.73
-13.64
-5.26
2.08
8.24
13.19
17.01
19.91
22.15
23.91
25.26
26.11
26.42
26.21
25.62
24.81
23.85
22.69
21.30
19.75
18.34
17.46
17.39
18.15
19.39
20.56
21.12
20.75
19.40
17.20
14.36
11.09
7.64
4.25
1.17
-1.56
-4.17
-7.09
-10.68
-15.00
-19.55
-23.45
-25.75
-25.85
-23.61
-19.37
-13.68
-7.04
0.12
7.46
14.58
21.07
26.50
30.54
33.04
33.98
33.46
31.73
29.16
26.24
23.58
21.62
20.55
20.23
20.29
20.29
19.94
19.11
17.86
16.26
14.36
12.17
9.72
7.12
4.54
2.15
0.10
-1.58
-2.97
-4.19
-5.47
-7.09
-9.37
-12.56
-16.70
-21.51
-26.31
-30.22
-32.31
-31.88
-28.68
-22.96
-15.43
-7.14
0.77
7.39
12.24
15.31
17.04
18.05
18.82
19.59
20.32
20.82
20.91
20.48
19.50
17.97
15.87
13.26
10.37
7.61
5.47
4.27
4.02
4.34
4.64
4.34
3.14
1.02
-1.77
-4.96
-8.33
-11.76
-15.16
-18.42
-21.46
-24.30
-27.11
-30.14
-33.51
-37.02
-40.13
-42.08
-42.14
-39.88
-35.29
-28.78
-21.03
-12.88
-5.07
1.81
7.47
11.81
15.01
17.17
18.36
18.54
17.68
15.96
13.79
11.77
10.40
9.92
10.16
10.76
11.30
11.51
11.25
10.48
9.12
7.09
4.40
1.24
-2.06
-5.12
-7.66
-9.65
-11.21
-12.57
-13.88
-15.30
-16.98
-19.10
-21.89
-25.51
-29.91
-34.69
-39.14
-42.36
-43.56
-42.26
-38.44
-32.61
-25.59
-18.32
-11.54
-5.64
-0.64
3.64
7.47
10.96
14.08
16.67
18.57
19.70
20.10
19.83
18.99
17.65
15.94
14.06
12.35
11.16
10.66
10.81
11.31
11.77
11.86
11.39
10.34
8.70
6.45
3.60
0.33
-3.03
-6.03
-8.35
-9.95
-11.12
-12.28
-13.82
-15.97
-18.77
-22.17
-26.00
-29.93
-33.30
-35.26
-34.93
-31.86
-26.24
-18.83
-10.72
-2.87
4.15
10.17
15.19
19.19
22.05
23.63
23.97
23.40
22.41
21.40
20.48
19.46
17.94
15.59
12.35
8.51
4.53
0.97
-1.67
-3.06
-3.07
-1.92
-0.12
1.58
2.42
1.90
0.03
-2.73
-5.72
-8.37
-10.40
-11.91
-13.13
-14.26
-15.42
-16.72
-18.22
-19.92
-21.63
-22.88
-22.99
-21.35
-17.67
-12.19
-5.60
1.23
7.58
12.99
17.36
20.77
23.30
24.96
25.75
25.62
24.64
23.01
21.04
19.16
17.76
17.13
17.29
18.01
18.91
19.63
19.93
19.80
19.36
18.66
17.59
15.95
13.57
10.47
6.95
3.44
0.33
-2.24
-4.35
-6.28
-8.29
-10.62
-13.41
-16.77
-20.81
-25.46
-30.42
-34.98
-38.21
-39.20
-37.36
-32.75
-25.97
-18.03
-10.00
-2.71
3.36
8.11
11.69
14.33
16.21
17.44
18.01
17.93
17.30
16.31
15.28
14.45
13.88
13.41
12.71
11.56
9.94
8.15
6.57
5.49
4.91
4.58
4.10
3.24
1.89
0.11
-2.09
-4.74
-7.88
-11.40
-14.97
-18.17
-20.66
-22.38
-23.68
-25.15
-27.34
-30.57
-34.71
-39.16
-43.09
-45.56
-45.85
-43.63
-39.11
-32.89
-25.76
-18.46
-11.48
-5.01
0.81
5.79
9.63
12.07
13.08
13.00
12.43
12.04
12.26
13.13
14.39
15.61
16.48
16.82
16.61
15.93
14.86
13.53
12.11
10.84
9.89
9.27
8.80
8.13
6.86
4.76
1.79
-1.79
-5.63
-9.32
-12.61
-15.41
-17.79
-20.00
-22.31
-24.95
-27.92
-30.92
-33.41
-34.69
-34.23
-31.79
-27.52
-21.85
-15.36
-8.52
-1.72
4.79
10.70
15.71
19.50
21.96
23.13
23.29
22.79
21.99
21.19
20.61
20.39
20.58
21.14
21.95
22.82
23.62
24.23
24.57
24.49
23.82
22.40
20.19
17.36
14.26
11.33
8.83
6.82
5.08
3.30
1.20
-1.41
-4.58
-8.30
-12.40
-16.47
-19.86
-21.75
-21.44
-18.64
-13.63
-7.18
-0.33
6.07
11.45
15.59
18.52
20.38
21.33
21.53
21.20
20.50
19.62
18.63
17.64
16.72
15.93
15.28
14.66
13.88
12.73
11.15
9.21
7.10
4.98
2.84
0.60
-1.89
-4.62
-7.44
-10.12
-12.54
-14.84
-17.32
-20.38
-24.22
-28.70
-33.31
-37.29
-39.82
-40.25
-38.29
-34.07
-28.11
-21.22
-14.24
-7.84
-2.34
2.25
6.15
9.57
12.54
14.96
16.67
17.61
17.92
17.84
17.57
17.13
16.36
15.11
13.34
11.32
9.49
8.24
7.76
7.89
8.16
8.00
6.93
4.68
1.30
-2.84
-7.22
-11.33
-14.76
-17.50
-19.83
-22.27
-25.32
-29.23
-33.84
-38.61
-42.80
-45.67
-46.69
-45.55
-42.21
-36.84
-29.85
-21.80
-13.42
-5.36
1.85
7.96
12.93
16.80
19.55
21.15
21.59
21.09
20.09
19.09
18.49
18.29
18.22
17.89
17.09
15.89
14.57
13.34
12.17
10.81
8.97
6.58
3.84
1.07
-1.45
-3.66
-5.71
-7.81
-10.13
-12.75
-15.78
-19.36
-23.67
-28.72
-34.19
-39.43
-43.53
-45.59
-45.00
-41.63
-35.79
-28.23
-19.88
-11.61
-4.14
2.18
7.29
11.39
14.66
17.29
19.34
20.85
21.88
22.56
23.02
23.27
23.16
22.45
21.05
19.11
17.17
15.89
15.79
16.92
18.84
20.73
21.78
21.49
19.78
16.97
13.56
10.05
6.81
4.11
2.04
0.50
-0.79
-2.35
-4.67
-7.99
-12.13
-16.39
-19.82
-21.45
-20.68
-17.38
-11.95
-5.06
2.47
9.93
16.81
22.75
27.55
31.01
32.99
33.42
32.40
30.30
27.71
25.23
23.35
22.21
21.68
21.46
21.22
20.83
20.26
19.52
18.52
17.07
14.98
12.19
8.85
5.28
1.86
-1.14
-3.66
-5.76
-7.65
-9.66
-12.13
-15.49
-19.97
-25.54
-31.70
-37.50
-41.74
-43.38
-41.82
-37.15
-30.09
-21.69
-13.15
-5.38
0.99
5.82
9.31
11.89
14.02
15.98
17.76
19.16
19.98
20.19
20.00
19.74
19.62
19.57
19.30
18.53
17.22
15.66
14.31
13.49
13.18
13.05
12.60
11.45
9.44
6.64
3.28
-0.43
-4.24
-7.93
-11.22
-13.95
-16.12
-18.04
-20.19
-23.11
-27.08
-32.02
-37.40
-42.41
-46.09
-47.57
-46.31
-42.17
-35.50
-27.09
-17.95
-9.04
-1.08
5.66
11.15
15.53
18.84
21.04
22.07
22.04
21.33
20.50
19.98
19.98
20.40
20.92
21.29
21.35
21.09
20.49
19.48
17.98
16.01
13.76
11.54
9.62
8.06
6.69
5.16
3.16
0.57
-2.54
-5.96
-9.41
-12.67
-15.56
-17.99
-19.95
-21.60
-23.23
-25.22
-27.81
-31.00
-34.40
-37.31
-38.93
-38.57
-35.94
-31.15
-24.68
-17.22
-9.47
-2.00
4.80
10.72
15.64
19.47
22.14
23.64
24.07
23.73
23.07
22.60
22.69
23.43
24.59
25.81
26.75
27.25
27.28
26.94
26.24
25.17
23.74
22.02
20.19
18.41
16.77
15.23
13.66
11.97
10.15
8.26
6.35
4.33
1.99
-0.92
-4.52
-8.67
-12.94
-16.69
-19.24
-19.99
-18.69
-15.46
-10.81
-5.50
-0.36
4.01
7.35
9.83
11.84
13.73
15.61
17.25
18.27
18.38
17.62
16.27
14.74
13.32
12.06
10.87
9.64
8.46
7.53
7.04
7.05
7.36
7.63
7.47
6.61
4.93
2.48
-0.56
-3.93
-7.33
-10.50
-13.24
-15.52
-17.47
-19.31
-21.31
-23.69
-26.59
-29.96
-33.55
-36.85
-39.14
-39.70
-37.97
-33.89
-27.87
-20.77
-13.52
-6.89
-1.30
3.15
6.41
8.42
9.10
8.48
6.88
4.94
3.33
2.55
2.66
3.35
4.15
4.72
4.93
4.86
4.62
4.22
3.61
2.79
1.85
0.99
0.28
-0.36
-1.17
-2.42
-4.20
-6.41
-8.84
-11.31
-13.75
-16.19
-18.65
-21.04
-23.25
-25.25
-27.19
-29.35
-31.93
-34.75
-37.22
-38.51
-37.89
-35.07
-30.35
-24.42
-18.04
-11.82
-6.05
-0.87
3.68
7.54
10.66
12.99
14.56
15.36
15.44
14.91
14.02
13.14
12.66
12.80
13.51
14.53
15.56
16.47
17.29
18.11
18.86
19.32
19.14
18.13
16.41
14.33
12.34
10.69
9.39
8.29
7.24
6.15
5.01
3.72
2.07
-0.18
-3.15
-6.70
-10.48
-14.01
-16.87
-18.71
-19.32
-18.53
-16.32
-12.87
-8.66
-4.34
-0.54
2.41
4.56
6.18
7.60
8.93
10.08
10.89
11.33
11.56
11.81
12.25
12.84
13.38
13.67
13.69
13.58
13.55
13.72
13.98
14.04
13.61
12.40
10.29
7.29
3.54
-0.70
-4.97
-8.75
-11.59
-13.29
-13.98
-14.13
-14.31
-14.99
-16.48
-18.85
-22.02
-25.68
-29.32
-32.14
-33.26
-32.01
-28.13
-22.00
-14.47
-6.57
0.90
7.44
12.87
17.24
20.62
23.09
24.75
25.80
26.43
26.84
27.17
27.50
27.85
28.25
28.68
29.04
29.18
28.87
27.92
26.28
24.10
21.67
19.29
17.15
15.19
13.16
10.77
7.81
4.33
0.57
-3.16
-6.57
-9.54
-12.07
-14.30
-16.47
-18.92
-22.07
-26.26
-31.61
-37.82
-44.19
-49.73
-53.47
-54.69
-53.12
-48.99
-42.82
-35.39
-27.47
-19.80
-12.95
-7.23
-2.77
0.51
2.75
4.12
4.78
4.91
4.80
4.73
4.93
5.48
6.24
6.94
7.29
7.14
6.47
5.41
4.06
2.50
0.73
-1.20
-3.21
-5.18
-7.04
-8.76
-10.38
-11.94
-13.47
-14.99
-16.50
-18.07
-19.76
-21.63
-23.68
-25.98
-28.57
-31.51
-34.68
-37.77
-40.10
-40.88
-39.46
-35.60
-29.62
-22.25
-14.39
-6.74
0.25
6.50
12.07
17.04
21.34
24.88
27.45
28.95
29.37
28.92
27.96
26.92
26.18
25.94
26.16
26.67
27.23
27.68
28.02
28.25
28.39
28.28
27.66
26.25
23.94
20.87
17.42
14.07
11.26
9.12
7.49
6.06
4.42
2.21
-0.82
-4.78
-9.65
-15.11
-20.52
-24.96
-27.45
-27.30
-24.36
-19.07
-12.28
-5.01
1.93
8.02
13.08
17.09
20.14
22.31
23.65
24.20
23.98
23.08
21.70
20.17
18.85
17.99
17.68
17.66
17.53
16.85
15.39
13.13
10.35
7.41
4.67
2.38
0.61
-0.71
-1.83
-3.09
-4.86
-7.40
-10.75
-14.71
-18.94
-23.10
-26.94
-30.46
-33.81
-37.20
-40.85
-44.84
-49.02
-52.94
-55.86
-56.93
-55.39
-50.94
-43.85
-34.92
-25.22
-15.73
-7.09
0.40
6.63
11.56
15.15
17.44
18.65
19.17
19.47
19.91
20.65
21.64
22.72
23.70
24.42
24.70
24.36
23.24
21.36
18.99
16.54
14.46
12.99
12.06
11.31
10.32
8.84
6.77
4.19
1.15
-2.34
-6.30
-10.64
-15.10
-19.28
-22.88
-25.90
-28.69
-31.79
-35.53
-39.76
-43.74
-46.40
-46.74
-44.22
-38.93
-31.46
-22.65
-13.36
-4.31
3.96
11.11
16.97
21.54
24.93
27.31
28.80
29.50
29.46
28.82
27.83
26.80
25.98
25.49
25.32
25.34
25.38
25.28
24.85
23.96
22.57
20.74
18.66
16.50
14.33
12.13
9.79
7.25
4.53
1.68
-1.30
-4.45
-7.79
-11.21
-14.49
-17.31
-19.65
-21.77
-24.24
-27.52
-31.58
-35.68
-38.58
-39.03
-36.27
-30.35
-22.07
-12.59
-3.01
5.89
13.73
20.36
25.71
29.70
32.34
33.69
34.00
33.58
32.77
31.89
31.20
30.91
31.12
31.79
32.73
33.68
34.35
34.60
34.35
33.63
32.48
30.90
28.94
26.65
24.15
21.53
18.81
15.98
12.98
9.82
6.63
3.53
0.55
-2.43
-5.63
-9.26
-13.41
-17.93
-22.43
-26.34
-29.04
-29.92
-28.58
-24.90
-19.14
-11.91
-4.08
3.50
10.14
15.48
19.41
22.04
23.50
23.96
23.54
22.44
20.95
19.41
18.11
17.20
16.64
16.27
15.84
15.25
14.48
13.58
12.61
11.57
10.35
8.91
7.18
5.18
2.87
0.18
-2.96
-6.54
-10.34
-14.04
-17.24
-19.75
-21.71
-23.51
-25.61
-28.41
-32.08
-36.59
-41.64
-46.68
-50.89
-53.24
-52.75
-48.85
-41.68
-32.13
-21.62
-11.55
-2.96
3.76
8.72
12.33
14.97
16.88
18.20
19.01
19.45
19.70
19.93
20.26
20.71
21.18
21.47
21.40
20.84
19.79
18.38
16.88
15.50
14.30
13.15
11.77
9.88
7.35
4.24
0.74
-2.91
-6.56
-10.13
-13.57
-16.84
-19.89
-22.76
-25.64
-28.85
-32.75
-37.46
-42.73
-47.86
-51.83
-53.56
-52.28
-47.70
-40.20
-30.66
-20.29
-10.23
-1.35
5.95
11.66
16.04
19.37
21.83
23.49
24.31
24.34
23.79
22.98
22.27
21.94
22.07
22.52
23.06
23.40
23.36
22.82
21.74
20.16
18.18
15.95
13.67
11.52
9.55
7.66
5.66
3.35
0.69
-2.24
-5.24
-8.17
-10.95
-13.63
-16.32
-19.20
-22.46
-26.28
-30.72
-35.55
-40.13
-43.46
-44.47
-42.36
-36.99
-28.92
-19.22
-9.07
0.56
9.08
16.22
21.89
26.04
28.70
29.96
30.07
29.45
28.52
27.72
27.33
27.49
28.13
29.03
29.82
30.14
29.82
28.92
27.71
26.49
25.43
24.42
23.12
21.19
18.49
15.18
11.65
8.29
5.29
2.54
-0.22
-3.28
-6.79
-10.78
-15.27
-20.20
-25.33
-30.10
-33.60
-34.76
-32.79
-27.55
-19.69
-10.43
-1.13
7.18
13.95
19.13
22.82
25.19
26.27
26.11
24.81
22.64
20.01
17.41
15.26
13.76
12.80
12.07
11.15
9.77
8.00
6.15
4.56
3.39
2.39
1.06
-1.12
-4.28
-8.14
-12.08
-15.48
-18.00
-19.76
-21.22
-22.93
-25.34
-28.63
-32.79
-37.66
-42.96
-48.33
-53.17
-56.71
-58.12
-56.72
-52.23
-44.96
-35.66
-25.42
-15.31
-6.14
1.65
7.99
13.04
16.97
19.87
21.77
22.71
22.84
22.46
21.91
21.52
21.38
21.43
21.45
21.24
20.71
19.90
18.94
17.91
16.85
15.71
14.34
12.62
10.41
7.66
4.40
0.81
-2.82
-6.19
-9.09
-11.53
-13.76
-16.21
-19.36
-23.53
-28.78
-34.87
-41.20
-46.87
-50.86
-52.24
-50.42
-45.39
-37.76
-28.61
-19.16
-10.35
-2.64
3.96
9.69
14.79
19.30
23.03
25.74
27.29
27.74
27.34
26.44
25.42
24.50
23.80
23.33
23.03
22.92
23.03
23.44
24.16
25.08
25.87
26.06
25.21
23.09
19.77
15.75
11.68
8.18
5.60
3.82
2.44
0.91
-1.20
-4.13
-7.95
-12.64
-18.08
-23.89
-29.35
-33.34
-34.65
-32.41
-26.57
-17.97
-8.08
1.57
9.87
16.38
21.20
24.64
26.95
28.23
28.49
27.79
26.37
24.56
22.79
21.39
20.58
20.34
20.46
20.54
20.18
19.13
17.46
15.46
13.54
11.94
10.62
9.25
7.39
4.79
1.46
-2.27
-6.01
-9.40
-12.29
-14.72
-16.89
-19.09
-21.63
-24.85
-28.99
-34.13
-39.98
-45.83
-50.57
-52.97
-52.09
-47.61
-40.02
-30.44
-20.26
-10.68
-2.42
4.38
9.99
14.72
18.77
22.06
24.38
25.56
25.63
24.89
23.80
22.80
22.15
21.86
21.73
21.53
21.18
20.67
20.10
19.46
18.60
17.30
15.44
13.04
10.31
7.53
4.90
2.45
0.08
-2.39
-5.06
-7.92
-10.92
-13.99
-17.13
-20.44
-24.05
-28.12
-32.72
-37.79
-42.94
-47.46
-50.44
-50.95
-48.45
-42.97
-35.13
-26.01
-16.74
-8.17
-0.73
5.52
10.75
15.14
18.74
21.56
23.57
24.79
25.29
25.22
24.74
24.09
23.52
23.20
23.18
23.35
23.45
23.27
22.72
21.81
20.64
19.26
17.63
15.67
13.42
11.05
8.82
6.97
5.51
4.24
2.86
1.18
-0.83
-2.98
-5.08
-7.04
-8.98
-11.16
-13.84
-17.21
-21.21
-25.52
-29.53
-32.42
-33.32
-31.58
-27.09
-20.28
-12.06
-3.55
4.35
11.09
16.50
20.66
23.66
25.53
26.30
26.07
25.13
23.86
22.65
21.69
20.94
20.20
19.26
18.01
16.56
15.18
14.11
13.50
13.30
13.18
12.69
11.38
8.98
5.50
1.29
-3.10
-7.16
-10.49
-13.01
-14.88
-16.37
-17.79
-19.38
-21.28
-23.53
-25.93
-28.03
-29.14
-28.53
-25.69
-20.61
-13.81
-6.22
1.17
7.67
13.00
17.19
20.33
22.35
23.02
22.18
20.00
17.05
14.20
12.23
11.46
11.70
12.39
12.96
13.07
12.71
12.03
11.12
9.94
8.35
6.25
3.72
1.00
-1.60
-3.87
-5.73
-7.33
-8.93
-10.92
-13.69
-17.47
-22.16
-27.22
-31.73
-34.62
-34.99
-32.46
-27.27
-20.17
-12.21
-4.40
2.47
7.99
12.04
14.75
16.37
17.15
17.35
17.13
16.58
15.76
14.79
13.86
13.20
13.00
13.23
13.65
13.88
13.48
12.20
9.97
7.00
3.64
0.31
-2.59
-4.87
-6.48
-7.68
-8.88
-10.65
-13.41
-17.34
-22.22
-27.59
-32.83
-37.36
-40.75
-42.62
-42.68
-40.68
-36.58
-30.62
-23.40
-15.70
-8.27
-1.61
4.10
9.00
13.30
17.15
20.51
23.22
25.07
25.88
25.63
24.47
22.68
20.65
18.72
17.12
15.97
15.21
14.71
14.28
13.73
12.83
11.31
8.96
5.72
1.76
-2.48
-6.46
-9.68
-11.88
-13.23
-14.18
-15.43
-17.63
-21.18
-25.99
-31.48
-36.67
-40.40
-41.70
-40.06
-35.58
-28.90
-20.98
-12.82
-5.12
1.75
7.75
12.95
17.35
20.86
23.33
24.70
25.08
24.74
24.06
23.33
22.69
22.13
21.51
20.70
19.56
18.05
16.23
14.25
12.35
10.69
9.35
8.20
6.93
5.22
2.90
0.01
-3.21
-6.49
-9.67
-12.77
-15.90
-19.10
-22.33
-25.54
-28.76
-32.24
-36.25
-40.81
-45.47
-49.29
-51.10
-50.02
-45.78
-38.87
-30.30
-21.20
-12.43
-4.49
2.47
8.44
13.39
17.24
19.88
21.30
21.66
21.23
20.44
19.69
19.26
19.21
19.42
19.66
19.70
19.50
19.11
18.68
18.25
17.73
16.85
15.37
13.19
10.47
7.59
4.98
2.90
1.35
0.03
-1.49
-3.59
-6.39
-9.72
-13.23
-16.54
-19.36
-21.71
-23.85
-26.25
-29.40
-33.63
-38.84
-44.45
-49.44
-52.63
-53.06
-50.32
-44.65
-36.86
-27.97
-18.92
-10.34
-2.55
4.31
10.21
15.04
18.69
21.09
22.33
22.70
22.59
22.42
22.44
22.72
23.08
23.35
23.44
23.45
23.62
24.09
24.79
25.37
25.34
24.32
22.23
19.33
16.15
13.24
10.98
9.44
8.33
7.14
5.30
2.48
-1.33
-5.75
-10.17
-14.02
-16.98
-19.10
-20.66
-22.16
-24.04
-26.67
-30.11
-34.09
-37.90
-40.55
-40.97
-38.45
-32.89
-25.02
-16.11
-7.61
-0.61
4.55
8.31
11.69
15.74
21.17
27.95
35.38
42.40
48.02
51.77
53.72
54.37
54.21
53.51
52.23
50.20
47.31
43.68
39.63
35.53
31.70
28.25
25.09
21.99
18.66
14.91
10.76
6.45
2.31
-1.36
-4.49
-7.28
-10.15
-13.46
-17.40
-21.92
-26.77
-31.63
-36.13
-39.81
-42.10
-42.44
-40.46
-36.16
-30.00
-22.74
-15.25
-8.22
-2.07
3.05
7.09
10.04
11.85
12.49
11.99
10.51
8.33
5.81
3.38
1.44
0.28
0.03
0.60
1.78
3.20
4.56
5.57
6.00
5.72
4.64
2.78
0.26
-2.64
-5.63
-8.39
-10.74
-12.63
-14.19
-15.58
-16.97
-18.47
-20.15
-22.13
-24.57
-27.70
-31.60
-36.06
-40.47
-43.88
-45.27
-43.92
-39.66
-32.93
-24.66
-15.94
-7.74
-0.73
4.79
8.86
11.76
13.83
15.41
16.68
17.63
18.18
18.23
17.79
16.99
16.07
15.22
14.49
13.79
13.00
12.03
10.95
9.89
8.98
8.25
7.64
6.92
5.92
4.45
2.44
-0.07
-2.96
-5.93
-8.71
-11.08
-13.02
-14.76
-16.67
-19.11
-22.36
-26.45
-31.27
-36.54
-41.80
-46.40
-49.47
-50.19
-47.93
-42.66
-34.97
-25.91
-16.71
-8.33
-1.30
4.32
8.69
12.04
14.56
16.39
17.66
18.54
19.20
19.73
20.19
20.50
20.56
20.28
19.62
18.70
17.76
17.14
17.03
17.44
18.06
18.36
17.83
16.25
13.74
10.75
7.79
5.20
3.02
1.00
-1.20
-3.86
-7.08
-10.80
-14.85
-18.89
-22.41
-24.74
-25.17
-23.20
-18.79
-12.41
-4.97
2.48
9.08
14.26
17.89
20.05
20.97
20.92
20.18
19.02
17.68
16.36
15.14
14.08
13.18
12.41
11.79
11.27
10.83
10.45
10.10
9.77
9.37
8.71
7.59
5.84
3.51
0.83
-1.82
-4.14
-6.02
-7.63
-9.38
-11.84
-15.49
-20.65
-27.28
-34.89
-42.52
-48.93
-52.85
-53.47
-50.62
-44.81
-37.15
-28.79
-20.71
-13.52
-7.39
-2.31
1.86
5.22
7.86
9.86
11.30
12.28
12.83
12.95
12.64
11.89
10.83
9.57
8.34
7.31
6.63
6.28
6.15
5.93
5.21
3.62
0.94
-2.74
-7.03
-11.30
-14.96
-17.69
-19.59
-21.16
-23.09
-26.04
-30.32
-35.85
-41.98
-47.70
-51.81
-53.22
-51.29
-45.97
-37.90
-28.15
-17.91
-8.16
0.53
7.99
14.27
19.48
23.61
26.57
28.28
28.80
28.38
27.43
26.38
25.52
24.87
24.29
23.52
22.44
21.18
20.01
19.20
18.83
18.72
18.40
17.43
15.54
12.79
9.50
6.06
2.81
-0.10
-2.67
-5.07
-7.54
-10.44
-14.14
-18.90
-24.60
-30.57
-35.69
-38.62
-38.25
-34.18
-26.79
-17.18
-6.75
3.15
11.55
18.00
22.51
25.35
26.93
27.63
27.68
27.25
26.43
25.31
24.04
22.77
21.67
20.82
20.29
20.07
20.10
20.25
20.32
19.99
18.97
17.01
14.10
10.46
6.50
2.63
-0.83
-3.76
-6.34
-8.93
-11.98
-15.87
-20.69
-26.10
-31.24
-35.01
-36.27
-34.28
-28.94
-20.76
-10.73
-0.02
10.35
19.60
27.23
32.97
36.67
38.33
38.19
36.66
34.38
31.98
29.95
28.50
27.55
26.79
25.90
24.67
23.09
21.33
19.58
17.93
16.32
14.51
12.22
9.26
5.60
1.40
-3.06
-7.48
-11.71
-15.71
-19.63
-23.77
-28.45
-33.95
-40.31
-47.23
-53.92
-59.20
-61.75
-60.59
-55.36
-46.54
-35.25
-22.86
-10.62
0.65
10.51
18.78
25.36
30.11
33.02
34.27
34.26
33.56
32.68
31.89
31.26
30.62
29.78
28.65
27.22
25.66
24.17
22.95
22.04
21.31
20.40
18.78
16.04
11.99
6.88
1.30
-4.06
-8.64
-12.23
-15.10
-17.81
-21.05
-25.40
-31.15
-38.17
-45.75
-52.71
-57.55
-58.87
-55.83
-48.50
-37.80
-25.24
-12.40
-0.51
9.77
18.15
24.60
29.12
31.79
32.81
32.61
31.77
30.90
30.38
30.23
30.25
30.08
29.47
28.34
26.83
25.15
23.48
21.86
20.20
18.29
15.91
12.94
9.37
5.38
1.24
-2.73
-6.35
-9.66
-12.88
-16.38
-20.51
-25.49
-31.29
-37.60
-43.75
-48.77
-51.47
-50.76
-45.96
-37.17
-25.32
-12.00
0.98
12.19
20.84
26.87
30.68
32.79
33.65
33.57
32.85
31.84
30.86
30.18
29.88
29.85
29.82
29.60
29.09
28.37
27.53
26.62
25.51
23.97
21.75
18.77
15.16
11.26
7.48
4.12
1.22
-1.40
-4.18
-7.56
-11.89
-17.27
-23.32
-29.19
-33.63
-35.28
-33.09
-26.78
-17.02
-5.29
6.59
17.01
25.02
30.42
33.57
34.98
35.07
34.08
32.17
29.57
26.65
23.81
21.43
19.64
18.35
17.34
16.37
15.35
14.22
12.97
11.47
9.51
6.84
3.37
-0.78
-5.28
-9.70
-13.71
-17.20
-20.40
-23.74
-27.77
-32.89
-39.05
-45.60
-51.33
-54.71
-54.38
-49.68
-40.90
-29.20
-16.24
-3.61
7.54
16.68
23.72
28.77
31.96
33.34
33.07
31.50
29.18
26.76
24.73
23.27
22.22
21.25
20.00
18.37
16.47
14.61
13.02
11.71
10.44
8.79
6.40
3.11
-0.94
-5.38
-9.80
-13.93
-17.73
-21.48
-25.65
-30.76
-37.06
-44.34
-51.79
-58.00
-61.44
-60.85
-55.77
-46.69
-34.95
-22.29
-10.31
-0.03
8.13
14.30
18.87
22.20
24.56
26.09
26.89
27.06
26.76
26.12
25.26
24.21
23.00
21.57
19.99
18.40
17.00
15.97
15.30
14.69
13.70
11.87
8.93
4.95
0.33
-4.34
-8.57
-12.12
-15.10
-17.96
-21.33
-25.74
-31.45
-38.24
-45.32
-51.48
-55.29
-55.55
-51.63
-43.72
-32.81
-20.36
-7.95
3.17
12.26
19.12
24.02
27.35
29.55
30.89
31.54
31.53
30.88
29.73
28.30
26.83
25.52
24.46
23.62
22.99
22.56
22.39
22.44
22.50
22.15
20.93
18.57
15.13
11.10
7.11
3.70
1.07
-0.98
-2.97
-5.49
-8.98
-13.58
-19.02
-24.59
-29.25
-31.80
-31.20
-27.00
-19.56
-9.94
0.34
9.89
17.79
23.74
27.91
30.62
32.09
32.39
31.57
29.85
27.64
25.47
23.73
22.49
21.54
20.50
19.05
17.12
14.91
12.79
11.08
9.85
8.93
7.92
6.39
4.11
1.12
-2.31
-5.79
-9.03
-11.93
-14.59
-17.31
-20.47
-24.42
-29.35
-35.14
-41.19
-46.52
-49.88
-50.11
-46.62
-39.62
-30.07
-19.42
-9.11
-0.13
7.08
12.58
16.66
19.58
21.47
22.37
22.25
21.18
19.39
17.18
14.85
12.67
10.73
9.00
7.38
5.82
4.36
3.13
2.23
1.68
1.32
0.86
-0.06
-1.68
-4.03
-6.94
-10.05
-13.04
-15.64
-17.80
-19.67
-21.49
-23.54
-26.08
-29.30
-33.23
-37.69
-42.17
-45.77
-47.43
-46.24
-41.74
-34.17
-24.37
-13.58
-3.01
6.43
14.24
20.29
24.66
27.46
28.88
29.14
28.58
27.62
26.74
26.24
26.23
26.54
26.84
26.79
26.14
24.89
23.18
21.27
19.34
17.51
15.82
14.25
12.73
11.14
9.33
7.08
4.28
0.90
-2.83
-6.59
-10.01
-12.90
-15.33
-17.60
-20.14
-23.29
-27.21
-31.80
-36.63
-41.08
-44.26
-45.31
-43.53
-38.70
-31.18
-21.86
-11.98
-2.67
5.31
11.69
16.60
20.31
23.08
25.03
26.23
26.78
26.86
26.66
26.36
26.04
25.71
25.31
24.82
24.25
23.66
23.13
22.67
22.25
21.70
20.75
19.14
16.69
13.40
9.55
5.57
1.92
-1.09
-3.47
-5.52
-7.78
-10.81
-14.96
-20.19
-25.90
-31.07
-34.50
-35.18
-32.67
-27.23
-19.70
-11.23
-2.81
4.85
11.45
16.87
21.01
23.69
24.76
24.22
22.40
19.91
17.45
15.54
14.39
13.85
13.54
13.08
12.23
11.04
9.76
8.58
7.60
6.64
5.40
3.58
1.06
-2.01
-5.35
-8.64
-11.79
-14.83
-17.93
-21.22
-24.74
-28.48
-32.47
-36.67
-40.92
-44.71
-47.24
-47.52
-44.84
-39.09
-30.91
-21.41
-11.85
-3.20
4.04
9.73
13.97
16.83
18.41
18.84
18.34
17.34
16.24
15.38
14.92
14.72
14.49
13.85
12.58
10.74
8.67
6.86
5.71
5.32
5.32
5.12
4.04
1.71
-1.81
-6.07
-10.43
-14.41
-17.81
-20.75
-23.58
-26.67
-30.33
-34.76
-39.99
-45.75
-51.35
-55.71
-57.61
-56.06
-50.75
-42.27
-31.88
-21.07
-11.07
-2.48
4.62
10.39
14.98
18.37
20.50
21.37
21.23
20.48
19.57
18.77
18.19
17.72
17.09
16.04
14.42
12.30
9.94
7.73
6.00
4.82
3.92
2.81
1.05
-1.55
-4.82
-8.34
-11.64
-14.48
-16.90
-19.20
-21.77
-24.97
-28.93
-33.63
-38.88
-44.19
-48.85
-51.96
-52.65
-50.35
-44.94
-36.92
-27.19
-16.84
-6.88
2.01
9.44
15.27
19.51
22.18
23.42
23.54
23.00
22.29
21.77
21.60
21.63
21.64
21.43
20.95
20.34
19.80
19.47
19.35
19.32
19.19
18.74
17.76
16.10
13.70
10.70
7.43
4.31
1.65
-0.51
-2.44
-4.62
-7.52
-11.35
-16.07
-21.36
-26.64
-31.16
-34.01
-34.23
-31.18
-24.76
-15.61
-4.98
5.63
15.01
22.51
28.08
31.98
34.52
35.80
35.81
34.60
32.45
29.82
27.28
25.19
23.67
22.56
21.59
20.55
19.35
18.09
16.93
15.98
15.21
14.40
13.21
11.34
8.68
5.37
1.74
-1.80
-4.96
-7.74
-10.36
-13.24
-16.81
-21.35
-26.86
-32.92
-38.67
-42.96
-44.59
-42.79
-37.43
-29.19
-19.25
-8.96
0.62
8.92
15.74
21.11
24.98
27.23
27.83
26.98
25.23
23.27
21.81
21.19
21.38
21.97
22.42
22.30
21.48
20.09
18.46
16.96
15.77
14.84
13.88
12.46
10.22
7.03
3.06
-1.26
-5.44
-9.12
-12.26
-15.14
-18.25
-22.07
-26.93
-32.92
-39.79
-46.88
-53.21
-57.52
-58.67
-55.99
-49.52
-40.06
-28.92
-17.50
-6.87
2.41
10.22
16.67
21.80
25.58
27.90
28.77
28.47
27.48
26.37
25.61
25.39
25.60
25.92
25.98
25.52
24.45
22.90
21.08
19.23
17.46
15.71
13.74
11.27
8.09
4.20
-0.13
-4.53
-8.63
-12.25
-15.44
-18.44
-21.54
-25.06
-29.26
-34.29
-40.09
-46.22
-51.78
-55.55
-56.31
-53.27
-46.42
-36.53
-24.98
-13.27
-2.62
6.24
13.11
18.18
21.77
24.25
25.88
26.82
27.20
27.14
26.83
26.46
26.22
26.10
25.93
25.50
24.64
23.45
22.23
21.32
20.82
20.52
19.92
18.56
16.18
12.95
9.32
5.84
2.87
0.49
-1.48
-3.35
-5.43
-7.98
-11.24
-15.35
-20.18
-25.26
-29.67
-32.21
-31.87
-28.20
-21.57
-13.00
-3.84
4.72
11.98
17.73
22.03
25.01
26.77
27.41
27.09
26.12
24.88
23.69
22.72
21.99
21.38
20.74
19.97
19.01
17.92
16.80
15.78
14.89
14.05
12.99
11.38
8.97
5.69
1.76
-2.38
-6.29
-9.69
-12.56
-15.25
-18.23
-21.96
-26.68
-32.28
-38.17
-43.44
-46.99
-47.88
-45.61
-40.34
-32.85
-24.26
-15.61
-7.58
-0.42
5.87
11.30
15.69
18.77
20.30
20.38
19.40
17.99
16.71
15.86
15.41
15.13
14.77
14.21
13.51
12.85
12.38
12.07
11.73
11.02
9.57
7.17
3.84
-0.13
-4.24
-7.95
-10.90
-13.02
-14.55
-16.04
-18.08
-21.15
-25.48
-30.97
-37.14
-43.14
-47.89
-50.25
-49.38
-44.99
-37.52
-28.06
-17.95
-8.38
-0.06
6.81
12.42
16.96
20.55
23.10
24.55
24.93
24.47
23.58
22.69
22.09
21.86
21.84
21.73
21.24
20.23
18.77
17.18
15.72
14.59
13.70
12.69
11.11
8.65
5.31
1.45
-2.41
-5.77
-8.44
-10.53
-12.37
-14.36
-16.76
-19.72
-23.30
-27.46
-32.01
-36.50
-40.18
-42.08
-41.35
-37.54
-30.85
-22.06
-12.29
-2.64
6.06
13.39
19.23
23.65
26.74
28.58
29.30
29.09
28.24
27.05
25.80
24.65
23.68
22.88
22.24
21.72
21.38
21.24
21.29
21.45
21.45
21.01
19.77
17.52
14.28
10.37
6.28
2.58
-0.41
-2.68
-4.57
-6.64
-9.41
-13.19
-17.94
-23.20
-28.16
-31.80
-33.13
-31.50
-26.84
-19.73
-11.23
-2.58
5.20
11.53
16.32
19.74
22.01
23.17
23.18
22.04
19.97
17.44
15.08
13.41
12.59
12.42
12.43
12.09
11.13
9.54
7.58
5.57
3.72
2.07
0.50
-1.18
-3.16
-5.53
-8.20
-10.98
-13.61
-15.89
-17.76
-19.38
-21.08
-23.29
-26.39
-30.61
-35.87
-41.73
-47.34
-51.59
-53.34
-51.80
-46.80
-38.91
-29.27
-19.23
-9.93
-1.98
4.53
9.81
14.18
17.74
20.47
22.23
22.98
22.87
22.19
21.29
20.44
19.79
19.30
18.84
18.29
17.61
16.86
16.16
15.58
15.04
14.37
13.28
11.52
8.97
5.74
2.09
-1.60
-4.99
-7.86
-10.19
-12.15
-14.02
-16.20
-19.13
-23.15
-28.34
-34.31
-40.18
-44.67
-46.50
-44.82
-39.49
-31.25
-21.39
-11.38
-2.41
4.89
10.49
14.66
17.82
20.24
22.04
23.20
23.70
23.56
22.93
21.97
20.86
19.69
18.52
17.35
16.26
15.35
14.78
14.61
14.72
14.81
14.47
13.34
11.24
8.29
4.83
1.27
-2.05
-5.02
-7.69
-10.31
-13.21
-16.71
-20.98
-26.02
-31.50
-36.73
-40.80
-42.71
-41.73
-37.61
-30.76
-22.14
-12.94
-4.30
3.03
8.73
12.83
15.54
17.10
17.68
17.39
16.41
14.96
13.32
11.72
10.34
9.23
8.35
7.66
7.12
6.70
6.34
5.93
5.30
4.25
2.62
0.34
-2.49
-5.60
-8.63
-11.28
-13.45
-15.32
-17.32
-19.97
-23.64
-28.25
-33.22
-37.47
-39.71
-38.90
-34.61
-27.22
-17.82
-7.85
1.33
8.83
14.36
18.02
20.06
20.61
19.63
17.10
13.22
8.51
3.77
-0.21
-2.95
-4.47
-5.22
-5.93
-7.25
-9.56
-12.83
-16.77
-20.98
-25.20
-29.35
-33.49
-37.62
-41.69
-45.57
-49.25
-52.96
-57.11
-61.90
-66.91
-70.91
-72.11
-68.76
-59.95
-46.13
-28.99
-10.88
6.20
21.29
34.68
47.52
61.07
75.95
91.84
107.59
121.61
132.34
138.54
139.43
134.77
124.97
111.27
95.79
81.19
70.12
64.25
63.69
66.89
71.13
73.53
71.97
65.78
55.71
43.47
30.94
19.54
9.93
2.12
-4.14
-9.01
-12.33
-13.78
-13.18
-10.69
-6.95
-2.87
0.73
3.52
5.82
8.56
12.92
19.83
29.55
41.48
54.34
66.55
76.79
84.30
89.07
91.61
92.55
92.36
91.15
88.77
85.02
79.91
73.72
66.98
60.21
53.70
47.39
40.99
34.18
26.86
19.23
11.76
4.93
-1.02
-6.15
-10.82
-15.51
-20.56
-26.18
-32.46
-39.49
-47.30
-55.78
-64.52
-72.66
-79.10
-82.76
-82.96
-79.73
-73.81
-66.42
-58.86
-52.21
-47.06
-43.55
-41.53
-40.73
-40.90
-41.85
-43.40
-45.31
-47.25
-48.79
-49.50
-49.07
-47.49
-45.03
-42.16
-39.44
-37.28
-35.84
-35.01
-34.50
-34.04
-33.48
-32.93
-32.62
-32.88
-33.93
-35.85
-38.52
-41.73
-45.09
-48.04
-49.83
-49.58
-46.59
-40.55
-31.85
-21.48
-10.82
-1.21
6.51
12.08
15.72
17.86
18.82
18.76
17.71
15.79
13.35
10.93
9.09
8.17
8.16
8.69
9.22
9.18
8.29
6.54
4.20
1.64
-0.85
-3.10
-5.12
-7.07
-9.07
-11.28
-13.84
-16.92
-20.66
-25.04
-29.61
-33.53
-35.62
-34.80
-30.47
-22.89
-13.05
-2.45
7.43
15.53
21.38
24.97
26.59
26.58
25.27
23.01
20.20
17.29
14.68
12.67
11.36
10.65
10.32
10.10
9.75
9.10
8.00
6.35
4.17
1.56
-1.24
-3.97
-6.43
-8.53
-10.43
-12.36
-14.65
-17.68
-21.73
-26.85
-32.68
-38.24
-42.12
-42.86
-39.49
-31.98
-21.35
-9.31
2.37
12.44
20.35
26.20
30.28
32.82
33.92
33.66
32.27
30.13
27.70
25.32
23.12
21.03
18.87
16.51
13.94
11.27
8.67
6.25
3.95
1.63
-0.95
-3.94
-7.36
-11.08
-14.88
-18.52
-21.93
-25.23
-28.73
-32.88
-38.12
-44.61
-52.05
-59.52
-65.62
-68.85
-68.13
-63.27
-55.01
-44.81
-34.28
-24.68
-16.66
-10.32
-5.50
-2.06
0.04
0.77
0.25
-1.18
-2.95
-4.41
-5.15
-5.09
-4.50
-3.75
-3.18
-2.84
-2.50
-1.82
-0.57
1.16
2.95
4.24
4.58
3.78
2.07
-0.10
-2.25
-4.07
-5.59
-7.03
-8.74
-11.02
-14.06
-17.90
-22.34
-26.86
-30.62
-32.57
-31.69
-27.42
-19.87
-9.90
1.21
12.11
21.79
29.69
35.66
39.78
42.19
42.99
42.39
40.64
38.12
35.17
32.20
29.54
27.48
26.13
25.47
25.30
25.31
25.23
24.84
24.06
22.86
21.16
18.85
15.90
12.42
8.69
5.06
1.82
-1.01
-3.63
-6.44
-9.86
-14.15
-19.28
-24.79
-29.82
-33.22
-33.88
-31.03
-24.64
-15.46
-4.87
5.53
14.38
20.94
25.12
27.27
27.85
27.24
25.72
23.55
21.07
18.74
16.99
16.03
15.72
15.67
15.44
14.73
13.57
12.17
10.79
9.53
8.25
6.67
4.51
1.68
-1.70
-5.33
-8.82
-11.88
-14.43
-16.69
-19.12
-22.35
-26.84
-32.62
-39.12
-45.09
-48.99
-49.41
-45.67
-38.00
-27.51
-15.78
-4.36
5.67
13.74
19.78
23.93
26.40
27.36
27.04
25.68
23.61
21.23
18.90
16.92
15.42
14.33
13.44
12.53
11.46
10.33
9.34
8.68
8.28
7.78
6.64
4.42
0.99
-3.38
-8.16
-12.82
-17.04
-20.78
-24.27
-27.84
-31.83
-36.48
-41.84
-47.61
-53.19
-57.59
-59.74
-58.73
-54.14
-46.19
-35.67
-23.72
-11.50
0.03
10.25
18.77
25.40
30.07
32.82
33.86
33.57
32.44
31.01
29.77
29.03
28.88
29.12
29.38
29.31
28.69
27.50
25.90
24.04
22.00
19.62
16.72
13.16
8.99
4.52
0.14
-3.81
-7.16
-9.98
-12.56
-15.36
-18.92
-23.72
-29.91
-37.01
-43.88
-48.91
-50.58
-47.97
-41.15
-31.13
-19.45
-7.61
3.28
12.64
20.22
26.00
30.02
32.42
33.49
33.70
33.52
33.39
33.54
34.06
34.89
35.85
36.65
37.00
36.71
35.78
34.49
33.22
32.22
31.44
30.51
28.93
26.43
23.11
19.45
15.99
13.04
10.57
8.29
5.87
3.10
-0.11
-3.77
-7.90
-12.37
-16.72
-20.08
-21.35
-19.55
-14.29
-5.96
4.38
15.36
25.79
34.85
42.18
47.72
51.53
53.75
54.55
54.12
52.74
50.71
48.35
45.89
43.45
40.94
38.18
34.84
30.60
25.21
18.62
10.81
1.79
-8.50
-20.05
-32.67
-45.76
-58.31
-69.12
-77.12
-81.77
-83.24
-82.24
-79.67
-76.29
-72.41
-68.00
-62.83
-56.62
-49.18
-40.32
-29.92
-17.98
-4.83
8.80
21.89
33.43
42.75
49.77
54.91
58.90
62.50
66.23
70.33
74.64
78.73
81.98
83.84
84.09
82.81
80.23
76.45
71.23
63.92
53.74
40.10
22.79
2.21
-20.64
-44.28
-66.92
-86.84
-102.88
-114.78
-123.22
-129.32
-133.89
-136.92
-137.47
-134.22
-126.25
-113.61
-97.25
-78.65
-59.32
-40.62
-23.99
-11.10
-3.67
-3.00
-9.30
-21.21
-35.97
-50.10
-60.29
-64.31
-61.45
-52.52
-39.50
-25.00
-11.61
-1.41
4.42
5.70
3.13
-2.09
-8.68
-15.56
-22.03
-27.75
-32.65
-36.77
-40.26
-43.36
-46.38
-49.70
-53.61
-58.06
-62.52
-66.01
-67.23
-65.10
-59.14
-49.76
-38.13
-25.81
-14.19
-4.15
4.07
10.71
16.10
20.48
23.80
25.87
26.46
25.56
23.41
20.49
17.40
14.67
12.58
11.07
9.90
8.82
7.76
6.91
6.48
6.56
6.83
6.65
5.29
2.23
-2.70
-9.25
-16.95
-25.09
-32.80
-38.99
-42.41
-41.98
-37.20
-28.44
-16.97
-4.54
7.14
16.91
24.30
29.38
32.44
33.75
33.50
31.87
29.19
25.96
22.72
19.94
17.87
16.51
15.64
14.91
13.90
12.32
10.07
7.26
4.19
1.19
-1.55
-4.06
-6.62
-9.61
-13.44
-18.40
-24.56
-31.73
-39.30
-46.28
-51.33
-53.14
-50.77
-44.08
-33.77
-21.20
-7.95
4.64
15.71
24.91
32.19
37.59
41.12
42.85
42.94
41.77
39.88
37.87
36.23
35.17
34.59
34.15
33.42
32.01
29.79
26.92
23.75
20.73
18.09
15.78
13.45
10.62
6.89
2.04
-3.90
-10.78
-18.26
-25.81
-32.56
-37.33
-38.93
-36.50
-29.92
-19.96
-8.04
4.21
15.47
24.99
32.63
38.58
43.12
46.40
48.46
49.30
49.00
47.74
45.85
43.69
41.62
39.89
38.56
37.50
36.40
34.92
32.84
30.14
26.96
23.48
19.86
16.13
12.24
8.19
3.98
-0.32
-4.81
-9.73
-15.34
-21.67
-28.19
-33.81
-37.11
-36.86
-32.52
-24.48
-13.96
-2.52
8.40
17.85
25.46
31.29
35.53
38.38
39.99
40.48
40.11
39.17
37.97
36.80
35.80
34.99
34.27
33.56
32.81
32.00
31.15
30.25
29.22
27.95
26.32
24.26
21.80
19.05
16.14
13.14
10.05
6.77
3.09
-1.18
-6.17
-11.75
-17.49
-22.56
-25.93
-26.61
-24.05
-18.37
-10.39
-1.35
7.55
15.52
22.28
27.93
32.64
36.37
38.88
39.91
39.46
37.87
35.78
33.83
32.41
31.49
30.73
29.73
28.29
26.53
24.81
23.50
22.71
22.23
21.54
20.08
17.51
13.84
9.54
5.22
1.45
-1.48
-3.68
-5.55
-7.63
-10.41
-14.21
-19.11
-24.89
-31.03
-36.73
-40.99
-42.89
-41.80
-37.64
-30.95
-22.71
-14.01
-5.71
1.75
8.29
13.98
18.80
22.55
24.97
25.96
25.72
24.76
23.70
22.99
22.80
22.92
23.00
22.73
21.98
20.83
19.50
18.19
16.99
15.82
14.53
12.93
10.92
8.56
6.03
3.57
1.33
-0.67
-2.59
-4.70
-7.23
-10.36
-14.12
-18.44
-23.15
-27.96
-32.38
-35.73
-37.25
-36.30
-32.64
-26.56
-18.82
-10.45
-2.39
4.75
10.73
15.59
19.46
22.41
24.45
25.57
25.89
25.64
25.12
24.54
24.01
23.46
22.77
21.85
20.76
19.60
18.56
17.75
17.19
16.80
16.42
15.86
14.96
13.64
11.86
9.67
7.19
4.58
2.03
-0.29
-2.25
-3.82
-5.10
-6.32
-7.82
-9.90
-12.74
-16.23
-19.98
-23.28
-25.30
-25.28
-22.85
-18.07
-11.54
-4.18
3.00
9.13
13.71
16.63
18.09
18.49
18.24
17.72
17.15
16.63
16.18
15.80
15.47
15.23
15.11
15.11
15.14
15.09
14.86
14.42
13.87
13.35
12.95
12.61
12.16
11.29
9.81
7.68
5.10
2.41
-0.04
-2.07
-3.74
-5.28
-7.02
-9.20
-11.89
-15.03
-18.40
-21.67
-24.43
-26.18
-26.42
-24.81
-21.24
-16.03
-9.83
-3.47
2.25
6.80
10.04
12.11
13.33
13.94
14.08
13.77
13.01
11.90
10.68
9.60
8.87
8.52
8.40
8.26
7.90
7.28
6.44
5.51
4.60
3.74
2.89
1.96
0.85
-0.56
-2.29
-4.30
-6.47
-8.61
-10.60
-12.38
-13.98
-15.55
-17.23
-19.14
-21.36
-23.87
-26.66
-29.59
-32.36
-34.50
-35.42
-34.59
-31.80
-27.24
-21.52
-15.42
-9.67
-4.70
-0.60
2.78
5.67
8.19
10.34
12.06
13.27
13.97
14.23
14.13
13.78
13.25
12.61
11.91
11.21
10.57
10.08
9.77
9.59
9.40
8.97
8.13
6.78
5.01
3.03
1.08
-0.65
-2.10
-3.32
-4.45
-5.62
-6.92
-8.44
-10.18
-12.15
-14.27
-16.49
-18.75
-21.01
-23.23
-25.27
-26.85
-27.58
-27.07
-25.09
-21.69
-17.22
-12.20
-7.17
-2.51
1.59
5.09
7.98
10.20
11.69
12.40
12.44
12.02
11.41
10.83
10.37
10.02
9.68
9.34
9.01
8.77
8.64
8.60
8.54
8.32
7.83
7.06
6.07
4.97
3.84
2.70
1.50
0.14
-1.42
-3.17
-4.98
-6.62
-7.93
-8.84
-9.45
-9.98
-10.70
-11.84
-13.52
-15.73
-18.29
-20.85
-22.91
-23.88
-23.32
-21.00
-17.12
-12.20
-6.94
-2.00
2.23
5.63
8.32
10.52
12.37
13.97
15.29
16.31
17.03
17.50
17.84
18.18
18.62
19.14
19.59
19.79
19.57
18.93
18.02
17.10
16.42
16.02
15.78
15.40
14.58
13.14
11.09
8.66
6.21
4.07
2.48
1.44
0.77
0.13
-0.80
-2.23
-4.20
-6.61
-9.24
-11.80
-13.93
-15.18
-15.15
-13.57
-10.51
-6.35
-1.77
2.57
6.13
8.69
10.29
11.07
11.17
10.70
9.72
8.39
6.94
5.66
4.76
4.30
4.20
4.25
4.25
4.08
3.75
3.31
2.88
2.52
2.25
1.99
1.62
0.98
-0.04
-1.45
-3.17
-5.04
-6.90
-8.62
-10.23
-11.79
-13.44
-15.29
-17.42
-19.86
-22.50
-25.09
-27.19
-28.23
-27.76
-25.58
-21.92
-17.36
-12.64
-8.36
-4.86
-2.15
-0.04
1.67
3.08
4.18
4.92
5.27
5.24
4.86
4.25
3.51
2.75
2.09
1.63
1.40
1.37
1.43
1.45
1.31
0.95
0.34
-0.54
-1.70
-3.16
-4.90
-6.83
-8.77
-10.50
-11.87
-12.89
-13.68
-14.47
-15.51
-16.97
-18.94
-21.39
-24.19
-27.03
-29.40
-30.71
-30.41
-28.20
-24.24
-19.06
-13.42
-8.05
-3.41
0.31
3.22
5.44
7.13
8.38
9.26
9.83
10.17
10.36
10.45
10.47
10.41
10.21
9.82
9.15
8.17
6.92
5.57
4.35
3.48
3.03
2.88
2.75
2.35
1.48
0.13
-1.58
-3.45
-5.29
-6.97
-8.44
-9.66
-10.64
-11.48
-12.37
-13.55
-15.23
-17.43
-19.90
-22.15
-23.55
-23.57
-21.92
-18.61
-14.00
-8.63
-3.12
1.97
6.29
9.68
12.20
14.02
15.31
16.19
16.73
17.03
17.19
17.38
17.71
18.20
18.77
19.27
19.51
19.44
19.10
18.58
18.02
17.48
16.94
16.29
15.42
14.23
12.69
10.91
9.07
7.39
6.06
5.06
4.26
3.40
2.24
0.63
-1.48
-3.94
-6.52
-8.83
-10.44
-10.93
-10.05
-7.84
-4.63
-1.00
2.47
5.39
7.63
9.29
10.50
11.29
11.55
11.13
10.02
8.40
6.63
5.05
3.81
2.82
1.83
0.65
-0.73
-2.12
-3.24
-3.93
-4.22
-4.32
-4.54
-5.12
-6.18
-7.69
-9.52
-11.49
-13.36
-14.92
-16.06
-16.76
-17.17
-17.54
-18.18
-19.35
-21.19
-23.64
-26.42
-29.05
-30.85
-31.18
-29.62
-26.13
-21.16
-15.48
-9.92
-5.13
-1.40
1.31
3.24
4.63
5.63
6.29
6.65
6.74
6.71
6.65
6.66
6.71
6.71
6.54
6.17
5.62
5.00
4.41
3.89
3.41
2.86
2.13
1.14
-0.13
-1.63
-3.27
-4.91
-6.39
-7.61
-8.60
-9.49
-10.52
-11.95
-13.93
-16.42
-19.21
-21.92
-24.13
-25.43
-25.48
-24.14
-21.44
-17.67
-13.26
-8.74
-4.53
-0.88
2.18
4.68
6.70
8.24
9.25
9.74
9.78
9.58
9.36
9.28
9.40
9.70
10.09
10.51
10.89
11.17
11.30
11.28
11.13
10.98
10.92
10.94
10.94
10.68
10.01
8.93
7.67
6.59
5.96
5.84
5.99
6.05
5.62
4.46
2.54
0.08
-2.53
-4.74
-5.98
-5.79
-4.00
-0.81
3.20
7.30
10.90
13.69
15.66
17.00
17.86
18.26
18.11
17.38
16.16
14.69
13.26
12.05
11.09
10.26
9.45
8.65
7.91
7.39
7.13
7.06
6.96
6.60
5.79
4.48
2.75
0.75
-1.34
-3.41
-5.39
-7.25
-9.00
-10.68
-12.39
-14.29
-16.50
-18.97
-21.43
-23.35
-24.13
-23.31
-20.83
-17.02
-12.55
-8.17
-4.43
-1.57
0.51
2.05
3.26
4.25
4.96
5.29
5.21
4.81
4.23
3.63
3.02
2.37
1.62
0.79
0.03
-0.45
-0.51
-0.15
0.49
1.15
1.55
1.48
0.82
-0.47
-2.36
-4.69
-7.20
-9.53
-11.35
-12.45
-12.82
-12.72
-12.62
-13.11
-14.63
-17.35
-20.91
-24.52
-27.12
-27.77
-26.01
-22.09
-16.84
-11.31
-6.36
-2.40
0.62
2.94
4.79
6.22
7.21
7.72
7.87
7.89
7.96
8.20
8.53
8.83
8.99
8.96
8.73
8.34
7.78
7.08
6.29
5.47
4.64
3.77
2.78
1.59
0.21
-1.26
-2.69
-3.95
-5.06
-6.14
-7.36
-8.86
-10.69
-12.83
-15.21
-17.69
-20.12
-22.23
-23.70
-24.19
-23.47
-21.49
-18.45
-14.65
-10.46
-6.16
-1.93
2.10
5.84
9.18
12.01
14.23
15.85
16.93
17.58
17.94
18.11
18.20
18.22
18.24
18.25
18.26
18.30
18.41
18.63
18.90
19.12
19.08
18.63
17.66
16.26
14.60
12.94
11.52
10.42
9.63
9.00
8.35
7.46
6.17
4.38
2.12
-0.43
-2.91
-4.84
-5.74
-5.29
-3.46
-0.56
2.88
6.20
8.93
10.80
11.84
12.21
12.13
11.68
10.87
9.73
8.32
6.81
5.42
4.29
3.44
2.74
2.00
1.03
-0.22
-1.62
-2.94
-3.98
-4.67
-5.15
-5.74
-6.78
-8.44
-10.63
-12.98
-15.02
-16.42
-17.13
-17.40
-17.63
-18.18
-19.24
-20.78
-22.58
-24.29
-25.46
-25.71
-24.71
-22.40
-18.98
-14.92
-10.80
-7.10
-4.08
-1.71
0.18
1.73
3.03
4.03
4.68
4.94
4.88
4.61
4.23
3.82
3.40
2.97
2.51
2.03
1.53
1.03
0.59
0.28
0.13
0.06
-0.07
-0.51
-1.40
-2.75
-4.42
-6.07
-7.45
-8.40
-9.02
-9.56
-10.35
-11.61
-13.35
-15.38
-17.37
-18.92
-19.68
-19.42
-18.02
-15.57
-12.32
-8.66
-4.99
-1.66
1.11
3.20
4.62
5.45
5.76
5.70
5.41
5.06
4.79
4.63
4.55
4.49
4.38
4.23
4.10
4.08
4.24
4.54
4.95
5.36
5.67
5.83
5.79
5.57
5.20
4.76
4.37
4.09
3.97
3.96
3.93
3.70
3.14
2.21
1.04
-0.07
-0.71
-0.52
0.70
2.93
5.86
9.05
12.03
14.45
16.17
17.29
17.99
18.45
18.72
18.74
18.37
17.55
16.33
14.85
13.33
11.94
10.78
9.90
9.32
9.04
8.96
8.93
8.71
8.10
7.09
5.77
4.40
3.17
2.15
1.18
0.07
-1.43
-3.41
-5.81
-8.48
-11.16
-13.54
-15.22
-15.85
-15.19
-13.29
-10.52
-7.42
-4.50
-2.10
-0.22
1.25
2.39
3.15
3.27
2.52
0.86
-1.39
-3.64
-5.33
-6.11
-6.09
-5.82
-6.04
-7.40
-10.07
-13.67
-17.37
-20.27
-21.91
-22.67
-23.77
-27.00
-34.13
-46.35
-63.94
-86.03
-110.49
-134.18
-153.53
-165.32
-167.88
-161.67
-149.26
-134.31
-120.12
-108.29
-98.23
-87.89
-75.14
-59.33
-41.80
-25.37
-13.05
-6.63
-5.90
-8.91
-12.88
-15.10
-13.61
-7.13
5.23
23.97
49.05
79.32
112.41
145.28
175.05
199.98
219.80
235.22
247.21
256.44
263.09
267.16
268.82
268.36
265.99
261.62
254.88
245.48
233.63
220.14
206.23
193.04
181.22
170.63
160.59
150.17
138.53
125.30
110.64
95.15
79.64
64.81
50.98
38.06
25.65
13.42
1.26
-10.58
-21.67
-31.64
-40.31
-47.67
-53.86
-58.98
-63.07
-66.19
-68.45
-70.11
-71.37
-72.37
-73.04
-73.18
-72.68
-71.54
-69.96
-68.25
-66.71
-65.49
-64.63
-64.05
-63.58
-62.94
-61.78
-59.76
-56.71
-52.70
-48.05
-43.29
-38.92
-35.32
-32.64
-30.89
-29.93
-29.65
-29.99
-30.88
-32.18
-33.74
-35.33
-36.74
-37.81
-38.51
-38.94
-39.25
-39.68
-40.40
-41.53
-43.02
-44.64
-46.12
-47.20
-47.79
-48.01
-48.17
-48.57
-49.46
-50.92
-52.89
-55.22
-57.61
-59.69
-60.97
-60.92
-59.19
-55.73
-50.88
-45.27
-39.59
-34.38
-29.96
-26.47
-24.01
-22.63
-22.34
-22.98
-24.21
-25.54
-26.52
-26.83
-26.38
-25.29
-23.90
-22.63
-21.92
-22.11
-23.35
-25.47
-28.06
-30.62
-32.71
-34.20
-35.26
-36.27
-37.66
-39.73
-42.55
-46.05
-49.93
-53.75
-56.86
-58.54
-58.16
-55.41
-50.54
-44.23
-37.46
-31.10
-25.70
-21.35
-17.93
-15.30
-13.41
-12.22
-11.55
-10.99
-9.95
-7.91
-4.65
-0.35
4.66
10.00
15.53
21.33
27.51
34.18
41.25
48.53
55.81
62.95
69.84
76.43
82.57
88.12
92.91
96.85
99.87
101.98
103.27
103.90
104.13
104.22
104.40
104.53
104.21
102.86
100.04
95.68
90.23
84.48
79.23
74.98
71.87
69.77
68.54
68.16
68.64
69.71
70.65
70.31
67.51
61.66
53.07
43.02
33.29
25.46
20.39
18.10
17.91
18.92
20.22
21.13
20.96
18.90
14.09
5.81
-6.09
-20.87
-36.89
-52.10
-64.91
-74.95
-83.35
-92.24
-103.66
-118.51
-135.98
-153.99
-170.17
-182.92
-191.76
-196.98
-198.97
-197.80
-193.46
-186.58
-178.88
-172.86
-170.73
-173.19
-178.83
-184.62
-187.26
-184.61
-176.37
-163.93
-149.31
-134.18
-119.38
-105.06
-91.26
-78.36
-67.05
-58.08
-51.87
-48.26
-46.69
-46.48
-47.13
-48.34
-49.88
-51.42
-52.37
-51.92
-49.15
-43.40
-34.44
-22.67
-9.07
5.00
18.17
29.37
38.07
44.25
48.23
50.36
50.93
50.09
47.95
44.69
40.58
36.04
31.52
27.45
24.20
21.96
20.77
20.44
20.60
20.85
20.84
20.40
19.52
18.26
16.63
14.51
11.75
8.17
3.62
-1.91
-8.26
-15.06
-21.65
-27.10
-30.45
-30.87
-28.01
-22.10
-13.90
-4.45
5.16
14.06
21.76
28.01
32.73
36.00
37.95
38.82
38.94
38.66
38.24
37.77
37.17
36.27
34.98
33.37
31.66
30.08
28.79
27.81
26.95
25.99
24.71
23.01
20.87
18.37
15.59
12.58
9.38
5.90
2.06
-2.32
-7.29
-12.73
-18.20
-22.93
-26.03
-26.75
-24.73
-20.12
-13.54
-5.84
2.14
9.75
16.63
22.58
27.57
31.55
34.49
36.38
37.24
37.22
36.58
35.71
34.94
34.48
34.29
34.17
33.85
33.21
32.32
31.36
30.50
29.71
28.77
27.35
25.28
22.58
19.51
16.44
13.63
11.18
8.97
6.77
4.26
1.19
-2.64
-7.28
-12.53
-17.88
-22.54
-25.60
-26.32
-24.35
-19.86
-13.51
-6.20
1.21
8.12
14.21
19.38
23.60
26.83
29.03
30.27
30.74
30.77
30.68
30.69
30.85
31.07
31.13
30.89
30.30
29.48
28.66
28.07
27.78
27.65
27.38
26.63
25.15
23.00
20.42
17.73
15.15
12.71
10.27
7.69
4.93
2.02
-0.96
-4.04
-7.19
-10.24
-12.67
-13.76
-12.84
-9.65
-4.58
1.52
7.62
12.98
17.30
20.69
23.34
25.38
26.69
27.14
26.69
25.53
24.01
22.51
21.28
20.37
19.70
19.14
18.62
18.11
17.69
17.35
17.01
16.45
15.41
13.70
11.28
8.39
5.41
2.70
0.48
-1.32
-2.95
-4.77
-7.08
-10.03
-13.58
-17.45
-21.13
-23.98
-25.30
-24.56
-21.62
-16.77
-10.70
-4.25
1.85
7.14
11.43
14.69
16.95
18.20
18.50
18.04
17.15
16.25
15.67
15.50
15.59
15.65
15.41
14.77
13.87
12.96
12.26
11.85
11.60
11.22
10.39
8.94
6.90
4.47
1.97
-0.38
-2.46
-4.36
-6.32
-8.58
-11.31
-14.48
-17.84
-20.97
-23.33
-24.44
-23.98
-21.81
-18.10
-13.25
-7.83
-2.43
2.45
6.57
9.88
12.50
14.52
16.00
16.91
17.24
17.10
16.69
16.27
15.97
15.79
15.52
14.94
13.99
12.80
11.67
10.91
10.63
10.69
10.75
10.40
9.37
7.61
5.28
2.70
0.21
-1.90
-3.53
-4.75
-5.81
-7.04
-8.73
-10.98
-13.63
-16.25
-18.30
-19.23
-18.71
-16.65
-13.27
-8.93
-4.05
0.97
5.79
10.11
13.74
16.50
18.32
19.21
19.28
18.74
17.83
16.84
15.96
15.35
15.01
14.88
14.84
14.76
14.57
14.23
13.73
13.05
12.20
11.17
10.01
8.78
7.60
6.54
5.59
4.61
3.39
1.76
-0.33
-2.71
-5.00
-6.68
-7.21
-6.24
-3.67
0.26
5.03
9.94
14.28
17.53
19.45
20.08
19.68
18.56
17.00
15.25
13.48
11.84
10.46
9.41
8.68
8.18
7.79
7.39
6.91
6.27
5.44
4.37
3.02
1.38
-0.52
-2.60
-4.71
-6.75
-8.60
-10.22
-11.69
-13.15
-14.81
-16.89
-19.46
-22.37
-25.22
-27.41
-28.28
-27.36
-24.55
-20.18
-14.85
-9.31
-4.21
0.01
3.17
5.30
6.58
7.25
7.56
7.74
7.93
8.18
8.46
8.66
8.70
8.52
8.08
7.37
6.42
5.28
4.02
2.71
1.42
0.18
-0.97
-2.01
-2.95
-3.83
-4.76
-5.85
-7.17
-8.78
-10.68
-12.89
-15.45
-18.26
-21.12
-23.55
-24.96
-24.83
-22.92
-19.48
-15.13
-10.66
-6.72
-3.63
-1.37
0.33
1.78
3.11
4.32
5.29
5.86
6.00
5.79
5.39
4.98
4.64
4.35
4.06
3.71
3.34
3.07
2.99
3.15
3.42
3.56
3.30
2.45
1.00
-0.90
-3.01
-5.06
-6.88
-8.42
-9.79
-11.19
-12.77
-14.57
-16.37
-17.72
-18.08
-17.02
-14.39
-10.43
-5.70
-0.87
3.53
7.22
10.21
12.66
14.73
16.49
17.89
18.81
19.22
19.16
18.74
18.10
17.33
16.51
15.70
14.91
14.16
13.39
12.51
11.40
10.04
8.48
6.94
5.68
4.95
4.87
5.34
6.04
6.54
6.35
5.20
3.04
0.20
-2.75
-5.13
-6.40
-6.27
-4.72
-2.03
1.40
5.08
8.58
11.57
13.92
15.64
16.92
17.89
18.62
19.02
19.00
18.53
17.76
16.99
16.52
16.51
16.91
17.50
18.07
18.51
18.83
19.11
19.38
19.57
19.54
19.21
18.60
17.86
17.16
16.64
16.27
15.92
15.39
14.53
13.37
12.03
10.77
9.83
9.41
9.64
10.56
12.13
14.19
16.53
18.91
21.10
22.91
24.14
24.60
24.16
22.81
20.74
18.28
15.76
13.28
10.70
7.73
4.11
-0.03
-4.26
-7.92
-10.43
-11.49
-11.20
-9.89
-7.96
-5.77
-3.67
-2.12
-1.73
-3.28
-7.45
-14.63
-24.57
-36.30
-48.31
-59.00
-67.21
-72.59
-75.70
-77.49
-78.79
-79.69
-79.54
-77.27
-72.06
-63.90
-53.74
-43.09
-33.52
-26.11
-21.28
-18.90
-18.62
-20.05
-22.91
-26.83
-31.42
-36.18
-40.73
-44.80
-48.38
-51.55
-54.35
-56.83
-59.04
-61.13
-63.34
-65.86
-68.73
-71.71
-74.37
-76.30
-77.29
-77.23
-75.99
-73.22
-68.36
-60.87
-50.60
-37.90
-23.50
-8.23
7.25
22.47
36.89
49.84
60.53
68.41
73.48
76.37
78.02
79.29
80.56
81.76
82.62
83.04
83.15
83.12
83.00
82.53
81.33
79.19
76.28
73.11
70.36
68.46
67.45
66.96
66.45
65.42
63.63
61.09
58.10
55.06
52.43
50.58
49.63
49.43
49.54
49.44
48.72
47.23
45.19
42.85
40.33
37.42
33.68
28.72
22.61
16.02
10.05
5.79
3.87
4.13
5.78
7.69
8.93
8.98
7.83
5.78
3.18
0.27
-2.85
-6.05
-9.17
-12.01
-14.44
-16.59
-18.81
-21.58
-25.19
-29.56
-34.11
-38.03
-40.52
-41.19
-40.13
-37.82
-34.85
-31.63
-28.36
-25.07
-21.84
-18.89
-16.54
-15.01
-14.34
-14.27
-14.44
-14.55
-14.52
-14.49
-14.65
-15.12
-15.86
-16.65
-17.19
-17.26
-16.70
-15.50
-13.77
-11.78
-9.91
-8.65
-8.40
-9.42
-11.62
-14.64
-17.93
-20.91
-23.11
-24.18
-23.97
-22.47
-19.84
-16.46
-12.76
-9.25
-6.28
-4.00
-2.39
-1.32
-0.69
-0.42
-0.49
-0.79
-1.15
-1.29
-1.01
-0.21
1.00
2.36
3.65
4.66
5.34
5.74
5.96
6.10
6.20
6.22
6.12
5.82
5.30
4.61
3.76
2.78
1.70
0.57
-0.46
-1.10
-1.06
-0.10
1.80
4.29
6.83
8.82
9.85
9.80
8.76
6.89
4.22
0.72
-3.58
-8.45
-13.44
-17.94
-21.51
-24.01
-25.69
-27.00
-28.40
-30.18
-32.39
-34.90
-37.44
-39.70
-41.34
-42.12
-41.98
-41.03
-39.60
-38.15
-37.12
-36.83
-37.36
-38.51
-39.83
-40.76
-40.78
-39.63
-37.33
-34.19
-30.62
-27.00
-23.57
-20.48
-17.89
-15.97
-14.92
-14.83
-15.62
-16.99
-18.51
-19.64
-19.81
-18.48
-15.34
-10.52
-4.68
1.14
5.94
9.24
11.35
13.21
15.92
20.12
25.66
31.79
37.56
42.39
46.33
49.78
53.13
56.39
59.15
60.90
61.41
60.95
60.17
59.75
60.09
61.10
62.37
63.44
64.08
64.35
64.51
64.71
64.84
64.51
63.21
60.52
56.38
51.02
44.95
38.77
32.99
27.93
23.72
20.28
17.36
14.64
11.80
8.66
5.21
1.73
-1.42
-3.93
-5.71
-6.98
-8.18
-9.79
-12.12
-15.20
-18.77
-22.50
-26.04
-29.12
-31.59
-33.29
-34.05
-33.75
-32.34
-29.91
-26.65
-22.77
-18.45
-13.83
-9.02
-4.17
0.56
5.02
9.11
12.85
16.28
19.44
22.29
24.64
26.21
26.59
25.43
22.53
18.03
12.34
6.10
-0.05
-5.69
-10.74
-15.29
-19.54
-23.51
-27.01
-29.71
-31.35
-31.89
-31.57
-30.84
-30.13
-29.63
-29.15
-28.16
-26.04
-22.32
-17.03
-10.68
-4.14
1.75
6.39
9.68
11.93
13.66
15.39
17.44
19.86
22.45
24.84
26.57
27.21
26.43
24.04
20.05
14.64
8.11
0.89
-6.64
-14.16
-21.46
-28.45
-35.10
-41.25
-46.63
-50.91
-53.85
-55.43
-55.92
-55.80
-55.48
-55.27
-55.25
-55.39
-55.57
-55.58
-55.08
-53.57
-50.55
-45.76
-39.49
-32.63
-26.46
-22.08
-19.80
-18.84
-17.50
-13.85
-6.55
4.59
18.62
33.87
48.58
61.25
70.77
76.49
78.24
76.63
73.12
69.72
68.27
69.49
72.61
75.71
76.71
74.39
68.79
60.81
51.39
40.88
29.00
15.37
0.00
-16.35
-32.34
-46.38
-57.05
-63.57
-66.47
-68.02
-72.04
-82.86
-103.52
-134.32
-172.30
-212.02
-247.17
-272.11
-282.83
-277.12
-254.48
-216.16
-165.27
-106.79
-46.99
7.97
53.48
87.41
110.11
123.60
130.39
132.78
132.46
130.57
127.94
125.29
123.30
122.75
124.20
127.85
133.33
139.76
145.94
150.69
153.05
152.35
147.93
138.88
123.79
101.19
70.37
32.26
-10.21
-52.46
-89.27
-116.24
-130.86
-132.87
-123.75
-105.81
-81.50
-53.06
-22.70
7.16
33.97
55.30
69.44
75.81
74.90
68.05
56.98
43.41
28.81
14.33
0.84
-10.86
-20.13
-26.55
-29.95
-30.48
-28.54
-24.82
-20.08
-15.03
-10.19
-5.81
-1.93
1.56
4.79
7.83
10.67
13.24
15.48
17.34
18.74
19.58
19.74
19.16
17.80
15.75
13.12
10.12
6.90
3.58
0.23
-3.11
-6.43
-9.76
-13.14
-16.60
-20.19
-23.92
-27.74
-31.52
-34.98
-37.71
-39.26
-39.33
-37.86
-35.07
-31.41
-27.31
-23.08
-18.84
-14.66
-10.69
-7.19
-4.45
-2.64
-1.66
-1.21
-0.93
-0.62
-0.28
-0.08
-0.17
-0.63
-1.38
-2.32
-3.36
-4.48
-5.74
-7.22
-8.94
-10.94
-13.19
-15.72
-18.48
-21.43
-24.45
-27.43
-30.31
-33.11
-35.89
-38.69
-41.39
-43.65
-44.97
-44.90
-43.16
-39.88
-35.47
-30.56
-25.74
-21.45
-17.86
-14.99
-12.77
-11.10
-9.87
-8.93
-8.10
-7.08
-5.62
-3.53
-0.80
2.41
5.72
8.72
11.03
12.47
13.16
13.37
13.47
13.74
14.30
15.09
15.94
16.65
17.02
16.88
16.07
14.47
12.09
9.13
5.98
3.14
1.15
0.40
1.06
3.12
6.37
10.49
15.07
19.69
24.02
27.84
31.11
33.95
36.48
38.80
40.89
42.70
44.17
45.36
46.34
47.18
47.86
48.28
48.38
48.25
48.15
48.45
49.44
51.18
53.39
55.59
57.24
57.99
57.77
56.82
55.58
54.50
53.92
53.90
54.13
53.92
52.31
48.39
41.63
32.18
20.94
9.26
-1.57
-10.78
-18.30
-24.62
-30.34
-35.87
-41.21
-46.21
-50.77
-55.07
-59.44
-64.25
-69.63
-75.50
-81.65
-87.85
-93.91
-99.52
-104.32
-107.86
-109.82
-110.10
-108.86
-106.38
-102.99
-98.94
-94.47
-89.86
-85.34
-80.95
-76.39
-70.99
-64.01
-54.98
-44.10
-32.21
-20.58
-10.38
-2.33
3.57
7.92
11.63
15.67
20.74
27.15
34.87
43.48
52.43
61.08
68.97
75.83
81.71
86.77
91.16
94.93
97.90
99.85
100.57
100.09
98.73
97.11
96.03
96.14
97.46
98.92
98.18
92.19
78.14
54.78
23.13
-13.60
-50.99
-84.64
-111.29
-129.11
-137.61
-137.29
-129.39
-115.96
-99.61
-83.16
-68.91
-58.05
-50.49
-45.18
-40.91
-36.86
-32.69
-28.20
-22.99
-16.47
-8.16
1.91
13.07
24.27
34.55
43.34
50.64
56.75
62.03
66.65
70.54
73.47
75.37
76.59
78.05
81.22
87.76
98.82
114.36
132.84
151.59
167.69
179.20
185.77
188.39
188.63
187.74
186.07
183.18
178.42
171.43
162.41
152.02
140.99
129.78
118.52
106.97
94.81
81.96
68.68
55.61
43.52
32.96
24.02
16.27
9.01
1.62
-6.02
-13.48
-19.90
-24.43
-26.65
-26.95
-26.46
-26.75
-29.23
-34.60
-42.54
-51.84
-60.83
-68.01
-72.55
-74.37
-73.98
-71.95
-68.57
-63.85
-57.74
-50.40
-42.34
-34.28
-26.90
-20.93
-17.23
-16.80
-20.44
-28.13
-38.46
-48.75
-55.80
-57.28
-52.76
-43.87
-33.46
-24.22
-17.66
-13.83
-12.00
-11.40
-11.77
-13.28
-16.13
-20.36
-25.83
-32.36
-39.95
-48.66
-58.29
-68.38
-78.20
-86.97
-94.24
-99.99
-104.45
-107.85
-110.30
-111.66
-111.70
-110.32
-107.65
-104.01
-99.84
-95.52
-91.29
-87.26
-83.54
-80.19
-77.32
-74.89
-72.69
-70.31
-67.23
-63.04
-57.59
-51.07
-43.88
-36.51
-29.36
-22.70
-16.66
-11.38
-7.05
-3.86
-1.91
-1.02
-0.83
-0.78
-0.44
0.32
1.33
2.13
2.22
1.28
-0.73
-3.51
-6.55
-9.29
-11.32
-12.43
-12.75
-12.63
-12.53
-12.85
-13.79
-15.37
-17.44
-19.89
-22.60
-25.43
-28.17
-30.42
-31.83
-32.18
-31.68
-30.85
-30.35
-30.58
-31.53
-32.73
-33.46
-33.17
-31.52
-28.52
-24.32
-19.10
-13.00
-6.22
0.99
8.27
15.25
21.70
27.45
32.40
36.46
39.52
41.60
42.94
43.96
45.20
47.00
49.41
52.11
54.59
56.28
56.85
56.23
54.55
52.06
49.03
45.78
42.54
39.55
36.83
34.20
31.24
27.49
22.57
16.47
9.59
2.68
-3.35
-7.77
-10.17
-10.58
-9.34
-7.01
-4.13
-1.15
1.55
3.73
5.16
5.70
5.37
4.31
2.84
1.35
0.18
-0.52
-0.82
-0.92
-1.06
-1.39
-2.04
-3.10
-4.69
-6.92
-9.82
-13.18
-16.59
-19.58
-21.75
-23.05
-23.73
-24.32
-25.36
-27.29
-30.26
-34.16
-38.60
-42.94
-46.43
-48.26
-47.78
-44.69
-39.16
-31.79
-23.51
-15.28
-7.93
-2.02
2.27
5.05
6.71
7.69
8.46
9.27
10.20
11.08
11.71
11.99
11.97
11.80
11.67
11.60
11.46
11.06
10.28
9.18
7.96
6.80
5.74
4.66
3.30
1.45
-1.03
-4.13
-7.87
-12.27
-17.35
-22.88
-28.22
-32.43
-34.51
-33.78
-30.16
-24.25
-17.01
-9.43
-2.22
4.31
10.08
15.08
19.23
22.47
24.76
26.21
27.05
27.49
27.61
27.39
26.71
25.51
23.79
21.66
19.33
17.05
15.03
13.42
12.26
11.40
10.54
9.32
7.44
4.75
1.34
-2.61
-6.93
-11.56
-16.62
-22.20
-28.20
-34.12
-39.11
-42.16
-42.49
-39.82
-34.58
-27.68
-20.25
-13.22
-7.15
-2.14
1.94
5.25
7.84
9.59
10.41
10.30
9.45
8.14
6.67
5.34
4.41
4.19
4.96
6.92
9.94
13.50
16.68
18.50
18.26
15.88
11.91
7.27
2.90
-0.58
-3.00
-4.57
-5.70
-6.96
-8.87
-11.85
-16.01
-20.96
-25.83
-29.50
-31.02
-29.95
-26.59
-21.68
-16.08
-10.42
-5.00
0.06
4.72
8.93
12.75
16.42
20.25
24.35
28.30
31.24
32.16
30.48
26.42
20.95
15.38
10.76
7.57
5.60
4.32
3.10
1.51
-0.74
-3.81
-7.78
-12.57
-17.90
-23.29
-28.16
-32.04
-34.68
-36.17
-36.83
-37.23
-37.98
-39.54
-41.98
-44.74
-46.77
-46.72
-43.60
-37.13
-27.99
-17.52
-7.24
1.76
9.10
15.01
19.98
24.37
28.26
31.52
33.99
35.68
36.82
37.70
38.52
39.35
40.05
40.43
40.42
40.02
39.40
38.76
38.20
37.68
37.00
35.82
33.83
30.91
27.18
23.02
18.87
15.07
11.66
8.44
5.08
1.29
-2.96
-7.58
-12.43
-17.43
-22.53
-27.58
-32.10
-35.37
-36.59
-35.23
-31.28
-25.26
-17.95
-10.10
-2.23
5.44
12.79
19.65
25.71
30.60
34.00
35.81
36.16
35.36
33.88
32.16
30.65
29.60
29.15
29.27
29.75
30.36
30.81
30.81
30.15
28.64
26.24
23.04
19.33
15.50
11.99
9.13
7.00
5.44
4.10
2.59
0.58
-2.02
-5.22
-8.94
-13.12
-17.78
-22.92
-28.47
-34.16
-39.48
-43.75
-46.24
-46.36
-43.85
-38.82
-31.80
-23.56
-14.95
-6.67
0.87
7.55
13.51
18.90
23.78
28.02
31.36
33.50
34.33
33.94
32.67
30.97
29.26
27.82
26.80
26.22
25.99
26.02
26.21
26.36
26.25
25.59
24.14
21.71
18.35
14.31
10.05
6.08
2.84
0.49
-1.16
-2.58
-4.33
-6.93
-10.66
-15.54
-21.35
-27.59
-33.54
-38.21
-40.63
-40.01
-36.08
-29.25
-20.51
-11.14
-2.27
5.41
11.66
16.56
20.21
22.66
23.86
23.87
22.96
21.64
20.46
19.84
19.89
20.41
21.01
21.24
20.74
19.42
17.41
15.07
12.76
10.83
9.41
8.37
7.46
6.33
4.72
2.53
-0.17
-3.27
-6.60
-10.03
-13.50
-16.94
-20.32
-23.70
-27.20
-31.13
-35.70
-40.93
-46.43
-51.36
-54.62
-55.17
-52.47
-46.65
-38.49
-29.10
-19.54
-10.55
-2.46
4.67
10.80
15.83
19.54
21.75
22.44
21.90
20.63
19.28
18.40
18.25
18.76
19.60
20.36
20.72
20.59
19.97
18.91
17.39
15.30
12.59
9.37
5.95
2.67
-0.22
-2.66
-4.84
-7.02
-9.42
-12.17
-15.27
-18.75
-22.67
-27.14
-32.28
-38.02
-43.99
-49.47
-53.46
-54.95
-53.28
-48.39
-40.95
-32.10
-23.02
-14.59
-7.11
-0.43
5.72
11.44
16.54
20.66
23.54
25.19
25.89
26.02
25.86
25.48
24.78
23.66
22.18
20.60
19.26
18.42
18.12
18.18
18.24
17.95
16.99
15.21
12.56
9.16
5.32
1.43
-2.06
-4.92
-7.15
-9.10
-11.31
-14.33
-18.53
-23.98
-30.35
-36.91
-42.61
-46.26
-46.85
-43.87
-37.57
-28.86
-19.11
-9.64
-1.35
5.38
10.59
14.51
17.28
19.00
19.74
19.67
19.16
18.62
18.41
18.69
19.37
20.22
20.95
21.32
21.18
20.47
19.20
17.42
15.24
12.82
10.30
7.81
5.39
2.98
0.47
-2.24
-5.27
-8.71
-12.70
-17.34
-22.59
-28.08
-33.01
-36.33
-36.99
-34.36
-28.53
-20.34
-11.04
-1.94
5.95
12.20
16.81
20.10
22.44
24.11
25.28
26.03
26.38
26.35
26.00
25.41
24.65
23.68
22.51
21.10
19.48
17.76
16.04
14.32
12.47
10.28
7.59
4.38
0.80
-2.99
-6.89
-10.99
-15.42
-20.31
-25.68
-31.45
-37.46
-43.39
-48.69
-52.57
-54.11
-52.59
-47.84
-40.44
-31.53
-22.42
-14.04
-6.74
-0.31
5.66
11.42
16.88
21.69
25.47
28.01
29.35
29.67
29.17
27.98
26.24
24.14
22.05
20.34
19.36
19.13
19.37
19.55
19.10
17.58
14.80
10.85
6.05
0.89
-4.14
-8.60
-12.34
-15.49
-18.54
-22.13
-26.80
-32.72
-39.58
-46.55
-52.49
-56.23
-56.85
-53.93
-47.65
-38.77
-28.38
-17.64
-7.47
1.60
9.49
16.31
22.20
27.18
31.15
33.98
35.68
36.47
36.71
36.82
37.09
37.56
38.03
38.18
37.68
36.37
34.33
31.85
29.35
27.14
25.34
23.77
22.07
19.80
16.68
12.74
8.27
3.63
-0.84
-5.03
-9.01
-12.98
-17.11
-21.55
-26.46
-31.94
-38.04
-44.44
-50.44
-54.91
-56.71
-55.10
-50.10
-42.43
-33.26
-23.70
-14.39
-5.56
2.85
10.84
18.25
24.70
29.83
33.40
35.42
36.12
35.85
35.05
34.15
33.51
33.32
33.60
34.16
34.77
35.17
35.16
34.59
33.40
31.58
29.23
26.56
23.81
21.19
18.77
16.45
14.02
11.32
8.21
4.76
1.04
-2.86
-6.88
-11.02
-15.24
-19.55
-24.00
-28.70
-33.63
-38.53
-42.69
-45.13
-44.88
-41.50
-35.27
-27.20
-18.58
-10.40
-3.07
3.58
9.89
16.07
21.96
27.19
31.38
34.42
36.42
37.57
38.00
37.77
36.95
35.78
34.60
33.77
33.48
33.64
34.00
34.23
34.15
33.66
32.79
31.53
29.81
27.58
24.81
21.63
18.27
14.97
11.88
9.03
6.35
3.74
1.12
-1.63
-4.64
-8.13
-12.29
-17.22
-22.63
-27.93
-32.21
-34.51
-34.15
-30.96
-25.37
-18.31
-10.91
-4.10
1.53
5.96
9.50
12.60
15.59
18.48
21.03
22.86
23.74
23.64
22.77
21.48
20.11
18.87
17.88
17.22
16.93
17.02
17.37
17.76
17.91
17.50
16.32
14.26
11.32
7.62
3.37
-1.10
-5.36
-8.99
-11.75
-13.67
-15.03
-16.32
-18.03
-20.52
-24.02
-28.56
-33.99
-39.90
-45.54
-49.92
-52.03
-51.21
-47.39
-41.16
-33.51
-25.51
-17.98
-11.35
-5.73
-1.11
2.58
5.44
7.63
9.40
11.00
12.56
14.06
15.35
16.33
17.03
17.59
18.18
18.83
19.43
19.88
20.15
20.41
20.87
21.74
23.09
24.90
27.05
29.45
31.95
34.34
36.29
37.48
37.71
36.95
35.44
33.50
31.39
29.18
26.71
23.52
18.95
12.26
2.88
-9.22
-23.35
-37.95
-51.05
-60.85
-66.32
-67.56
-65.61
-61.92
-57.78
-53.89
-50.41
-47.17
-44.02
-40.99
-38.19
-35.72
-33.50
-31.34
-29.07
-26.68
-24.33
-22.31
-20.85
-20.04
-19.84
-20.03
-20.35
-20.50
-20.27
-19.56
-18.51
-17.43
-16.76
-16.88
-17.96
-19.84
-22.15
-24.41
-26.25
-27.54
-28.36
-28.94
-29.50
-30.20
-31.09
-32.16
-33.39
-34.68
-35.82
-36.45
-36.15
-34.50
-31.22
-26.31
-20.04
-12.83
-5.22
2.32
9.36
15.60
20.78
24.74
27.40
28.84
29.22
28.81
27.91
26.81
25.76
24.92
24.37
24.05
23.90
23.76
23.54
23.17
22.64
21.99
21.25
20.50
19.79
19.16
18.59
17.97
17.08
15.77
13.92
11.59
8.90
6.01
2.95
-0.25
-3.57
-6.91
-10.11
-13.06
-15.84
-18.68
-21.83
-25.26
-28.55
-31.02
-31.92
-30.86
-27.90
-23.51
-18.30
-12.73
-7.09
-1.51
3.88
8.87
13.23
16.79
19.47
21.29
22.27
22.43
21.84
20.65
19.18
17.81
16.84
16.44
16.59
17.11
17.78
18.33
18.48
18.00
16.79
14.95
12.80
10.78
9.23
8.27
7.72
7.21
6.31
4.76
2.50
-0.35
-3.53
-6.72
-9.63
-12.08
-14.02
-15.62
-17.19
-19.02
-21.27
-23.80
-26.17
-27.78
-28.08
-26.77
-23.86
-19.64
-14.52
-8.89
-3.08
2.65
8.10
13.05
17.30
20.72
23.23
24.85
25.67
25.82
25.48
24.84
24.13
23.55
23.25
23.30
23.63
24.09
24.48
24.57
24.17
23.19
21.67
19.78
17.80
16.04
14.68
13.70
12.90
11.95
10.53
8.49
5.88
2.96
-0.00
-2.80
-5.37
-7.81
-10.32
-13.10
-16.27
-19.78
-23.31
-26.34
-28.20
-28.42
-26.78
-23.52
-19.15
-14.27
-9.35
-4.61
-0.13
4.00
7.63
10.52
12.48
13.51
13.80
13.59
13.16
12.68
12.33
12.23
12.57
13.44
14.86
16.68
18.62
20.39
21.77
22.65
23.01
22.86
22.25
21.24
20.02
18.80
17.83
17.25
17.07
17.11
17.07
16.63
15.46
13.34
10.19
6.00
0.88
-4.93
-11.02
-16.84
-21.63
-24.69
-25.41
-23.58
-19.41
-13.60
-7.07
-0.77
4.64
8.96
12.37
15.25
17.96
20.69
23.38
25.87
27.93
29.34
29.80
28.97
26.42
21.87
15.41
7.55
-0.78
-8.61
-15.32
-20.82
-25.62
-30.39
-35.59
-41.24
-46.88
-51.86
-55.58
-57.70
-58.14
-56.97
-54.47
-51.13
-47.75
-45.35
-44.95
-47.20
-52.13
-59.04
-66.72
-73.74
-78.85
-81.15
-80.22
-76.06
-69.05
-59.81
-49.05
-37.55
-25.99
-15.14
-5.81
1.15
5.05
5.68
3.56
-0.01
-3.22
-4.26
-1.95
4.01
12.98
23.72
34.73
44.65
52.39
57.15
58.39
55.83
49.53
39.98
28.28
15.98
4.88
-3.47
-8.19
-9.34
-7.83
-5.11
-2.69
-1.73
-2.89
-6.33
-11.84
-18.85
-26.44
-33.36
-38.26
-40.02
-38.18
-33.06
-25.72
-17.42
-9.27
-1.85
4.77
10.76
16.28
21.29
25.61
28.94
31.18
32.34
32.66
32.43
32.04
31.82
32.08
33.02
34.67
36.91
39.50
42.13
44.54
46.58
48.13
49.18
49.79
50.00
49.97
49.86
49.92
50.36
51.34
52.89
54.85
56.82
58.21
58.34
56.73
53.33
48.67
43.86
40.13
38.49
39.22
41.88
45.43
48.69
50.70
50.90
49.06
45.18
39.35
31.84
23.19
14.26
6.04
-0.64
-5.36
-8.19
-9.61
-10.25
-10.74
-11.64
-13.45
-16.53
-20.95
-26.42
-32.42
-38.27
-43.53
-48.05
-51.90
-55.06
-57.32
-58.30
-57.77
-55.89
-53.17
-50.21
-47.24
-43.91
-39.46
-33.15
-24.76
-14.61
-3.55
7.57
18.17
28.01
37.05
45.21
52.22
57.70
61.36
63.26
63.79
63.60
63.35
63.39
63.64
63.70
62.95
60.99
57.78
53.73
49.52
45.73
42.71
40.46
38.77
37.42
36.30
35.38
34.70
34.16
33.56
32.74
31.53
29.86
27.67
24.87
21.39
17.32
13.06
9.34
7.01
6.71
8.52
12.02
16.48
21.07
25.12
28.22
30.04
30.27
28.72
25.38
20.50
14.43
7.55
-0.04
-8.37
-17.45
-27.06
-36.64
-45.41
-52.75
-58.46
-62.71
-66.00
-68.86
-71.64
-74.46
-77.38
-80.38
-83.49
-86.74
-90.00
-93.01
-95.40
-96.78
-96.96
-95.97
-94.22
-92.33
-90.99
-90.74
-91.71
-93.51
-95.26
-95.84
-94.28
-90.05
-83.32
-74.81
-65.57
-56.52
-48.21
-40.72
-33.99
-27.91
-22.59
-18.24
-15.01
-12.73
-11.01
-9.35
-7.43
-5.31
-3.29
-1.74
-0.87
-0.62
-0.68
-0.79
-0.80
-0.75
-0.80
-1.02
-1.37
-1.77
-2.15
-2.56
-3.10
-3.90
-4.99
-6.29
-7.69
-9.08
-10.43
-11.74
-13.12
-14.68
-16.52
-18.67
-20.99
-23.12
-24.50
-24.61
-23.10
-20.06
-15.91
-11.23
-6.50
-1.95
2.38
6.55
10.46
13.89
16.56
18.28
19.03
18.94
18.26
17.17
15.91
14.71
13.79
13.38
13.56
14.26
15.28
16.40
17.40
18.13
18.51
18.46
17.97
17.12
16.09
15.14
14.51
14.29
14.43
14.74
14.93
14.74
13.82
11.90
8.76
4.46
-0.55
-5.43
-9.16
-10.93
-10.44
-8.03
-4.46
-0.69
2.58
4.93
6.25
6.53
5.79
4.12
1.74
-0.93
-3.37
-5.10
-5.87
-5.75
-5.06
-4.18
-3.48
-3.17
-3.31
-3.90
-4.81
-5.88
-6.86
-7.57
-7.88
-7.89
-7.83
-8.07
-8.89
-10.42
-12.59
-15.21
-18.05
-20.97
-23.99
-27.24
-30.86
-34.82
-38.90
-42.61
-45.31
-46.45
-45.73
-43.25
-39.43
-34.87
-30.07
-25.36
-20.81
-16.41
-12.17
-8.16
-4.52
-1.36
1.30
3.48
5.23
6.50
7.17
7.12
6.27
4.74
2.84
0.97
-0.47
-1.26
-1.41
-1.20
-1.11
-1.60
-3.02
-5.45
-8.64
-12.12
-15.31
-17.73
-19.10
-19.43
-18.96
-18.14
-17.43
-17.37
-18.45
-21.01
-25.09
-30.24
-35.46
-39.41
-40.78
-38.79
-33.52
-25.76
-16.77
-7.75
0.50
7.64
13.63
18.57
22.52
25.61
28.07
30.22
32.44
34.91
37.64
40.45
43.03
45.07
46.30
46.58
45.88
44.37
42.39
40.34
38.56
37.21
36.18
35.20
34.03
32.51
30.60
28.33
25.71
22.78
19.59
16.34
13.29
10.69
8.65
7.00
5.41
3.41
0.63
-3.04
-7.37
-11.82
-15.54
-17.65
-17.48
-14.69
-9.52
-2.59
5.21
13.07
20.39
26.87
32.33
36.62
39.59
41.12
41.27
40.34
38.88
37.42
36.34
35.77
35.60
35.61
35.56
35.28
34.65
33.60
32.07
30.10
27.77
25.24
22.67
20.14
17.62
15.00
12.15
9.01
5.57
1.89
-2.07
-6.39
-11.24
-16.73
-22.69
-28.69
-33.95
-37.63
-39.04
-37.93
-34.55
-29.59
-23.95
-18.44
-13.54
-9.36
-5.73
-2.34
0.98
4.23
7.17
9.56
11.20
12.12
12.46
12.41
12.10
11.51
10.56
9.22
7.55
5.77
4.19
3.04
2.42
2.20
2.10
1.73
0.75
-1.01
-3.47
-6.34
-9.22
-11.78
-13.82
-15.38
-16.62
-17.80
-19.22
-21.22
-24.10
-28.07
-33.07
-38.66
-44.06
-48.27
-50.40
-49.99
-47.04
-42.00
-35.54
-28.28
-20.72
-13.27
-6.19
0.31
6.15
11.35
16.03
20.30
24.19
27.73
30.91
33.85
36.65
39.41
41.97
44.00
45.01
44.68
42.99
40.29
37.15
34.14
31.58
29.50
27.75
26.10
24.41
22.54
20.36
17.69
14.31
10.09
5.09
-0.46
-6.22
-11.86
-17.24
-22.38
-27.41
-32.39
-37.15
-41.25
-44.09
-45.08
-43.87
-40.45
-35.08
-28.28
-20.60
-12.62
-4.82
2.33
8.45
13.26
16.60
18.49
19.11
18.72
17.66
16.26
14.85
13.80
13.39
13.84
15.15
17.12
19.36
21.41
22.83
23.37
23.00
21.87
20.25
18.42
16.61
14.92
13.33
11.80
10.21
8.43
6.38
4.01
1.34
-1.56
-4.57
-7.54
-10.40
-13.16
-15.92
-18.70
-21.39
-23.67
-25.05
-25.03
-23.33
-19.95
-15.14
-9.39
-3.11
3.28
9.50
15.30
20.48
24.86
28.29
30.64
31.88
32.10
31.50
30.49
29.54
29.05
29.22
30.00
31.05
32.03
32.64
32.76
32.42
31.68
30.56
29.03
27.08
24.76
22.29
19.92
17.89
16.30
15.09
14.01
12.80
11.15
8.88
5.94
2.36
-1.75
-6.20
-10.70
-14.82
-17.99
-19.58
-19.06
-16.20
-11.23
-4.84
1.98
8.24
13.26
16.79
19.00
20.30
21.11
21.69
22.08
22.21
22.02
21.57
20.98
20.34
19.65
18.76
17.54
15.93
14.11
12.41
11.17
10.56
10.48
10.54
10.26
9.23
7.26
4.43
1.04
-2.51
-5.80
-8.50
-10.53
-12.05
-13.40
-15.03
-17.28
-20.27
-23.93
-27.90
-31.65
-34.59
-36.07
-35.66
-33.16
-28.80
-23.13
-16.87
-10.69
-5.04
-0.13
3.94
7.08
9.12
9.92
9.49
8.13
6.36
4.79
3.89
3.81
4.43
5.38
6.31
6.92
7.12
6.89
6.32
5.52
4.61
3.73
3.05
2.70
2.78
3.28
4.11
5.13
6.18
7.23
8.29
9.36
10.44
11.38
12.01
12.22
12.02
11.58
11.14
10.91
11.02
11.42
12.07
12.94
14.09
15.72
18.02
21.12
24.99
29.45
34.18
38.81
42.89
46.00
47.78
48.07
46.87
44.40
41.14
37.63
34.48
32.19
31.07
31.11
32.02
33.31
34.40
34.75
34.06
32.26
29.54
26.29
22.87
19.55
16.42
13.43
10.37
7.04
3.23
-1.19
-6.23
-11.86
-17.97
-24.48
-31.31
-38.28
-45.00
-50.96
-55.49
-58.10
-58.56
-57.06
-54.12
-50.48
-46.79
-43.56
-40.97
-39.00
-37.43
-36.03
-34.59
-32.99
-31.24
-29.43
-27.64
-25.93
-24.35
-22.91
-21.72
-20.92
-20.69
-21.10
-21.98
-23.00
-23.78
-23.99
-23.65
-23.05
-22.67
-22.99
-24.25
-26.39
-29.06
-31.88
-34.53
-36.95
-39.23
-41.61
-44.23
-47.16
-50.31
-53.55
-56.66
-59.40
-61.49
-62.63
-62.52
-61.03
-58.22
-54.38
-49.88
-45.10
-40.20
-35.23
-30.12
-24.93
-19.81
-14.95
-10.48
-6.37
-2.45
1.49
5.54
9.70
13.90
18.17
22.60
27.34
32.39
37.48
42.15
45.79
47.89
48.14
46.63
43.79
40.32
36.96
34.21
32.12
30.30
28.22
25.57
22.58
20.00
18.79
19.64
22.62
27.13
32.17
36.67
39.87
41.41
41.40
40.29
38.90
38.26
39.34
42.77
48.54
55.93
63.75
70.67
75.64
78.16
78.24
76.25
72.64
67.85
62.24
56.23
50.30
44.87
40.13
36.08
32.50
29.22
26.16
23.36
20.87
18.59
16.27
13.69
10.82
7.99
5.79
4.75
5.02
6.06
6.74
5.65
1.61
-5.85
-16.22
-27.96
-38.85
-46.63
-49.71
-47.86
-42.36
-35.62
-30.36
-28.52
-30.38
-34.64
-39.18
-42.23
-43.27
-43.32
-44.16
-47.29
-53.07
-60.50
-67.76
-73.02
-75.18
-74.07
-70.39
-65.21
-59.70
-54.85
-51.50
-50.25
-51.39
-54.74
-59.65
-65.09
-69.83
-72.68
-72.70
-69.47
-63.11
-54.26
-43.75
-32.43
-20.90
-9.52
1.66
12.82
24.17
35.92
48.05
60.40
72.51
83.81
93.67
101.44
106.62
108.92
108.38
105.31
100.32
94.22
87.93
82.30
77.91
74.82
72.62
70.47
67.50
63.14
57.41
50.83
44.19
38.10
32.72
27.66
22.12
14.98
4.97
-9.10
-27.89
-51.02
-76.81
-102.48
-125.15
-142.87
-155.20
-163.00
-167.44
-169.11
-167.40
-160.93
-148.21
-128.54
-102.23
-70.52
-35.35
0.72
34.69
63.47
84.56
96.90
101.16
99.36
93.83
86.24
77.15
66.34
53.60
39.34
24.71
11.13
-0.27
-9.19
-16.10
-21.96
-27.52
-33.00
-38.01
-41.88
-43.97
-44.27
-43.38
-42.27
-41.87
-42.61
-44.28
-46.24
-47.75
-48.22
-47.32
-44.90
-41.07
-36.18
-31.07
-26.93
-25.02
-26.06
-29.66
-34.29
-37.72
-37.92
-33.87
-26.02
-15.98
-5.89
2.56
8.61
12.41
14.56
15.42
14.91
12.60
8.24
2.24
-4.20
-9.52
-12.45
-12.46
-10.03
-6.23
-2.28
0.96
3.12
4.28
4.55
4.01
2.56
0.16
-3.20
-7.26
-11.71
-16.20
-20.50
-24.55
-28.39
-32.07
-35.54
-38.58
-40.74
-41.47
-40.08
-36.06
-29.20
-19.86
-8.95
2.16
12.10
19.92
25.27
28.42
29.99
30.67
30.93
31.07
31.15
31.26
31.34
31.34
31.10
30.54
29.66
28.65
27.73
27.03
26.41
25.36
23.23
19.37
13.44
5.47
-4.10
-14.63
-25.48
-36.21
-46.63
-56.79
-66.83
-76.82
-86.67
-96.03
-104.35
-110.99
-115.37
-117.09
-116.08
-112.47
-106.58
-98.81
-89.51
-79.13
-68.19
-57.35
-47.24
-38.41
-31.08
-25.26
-20.68
-17.05
-13.99
-11.11
-8.00
-4.18
0.72
6.85
14.05
21.97
30.07
37.85
44.82
50.61
54.94
57.75
59.20
59.62
59.41
58.79
57.66
55.42
51.15
43.74
32.39
17.08
-1.14
-20.13
-36.97
-48.76
-53.28
-49.58
-38.27
-21.21
-1.08
19.34
37.53
51.71
60.94
65.26
65.49
63.15
60.06
57.91
57.92
60.58
65.59
71.93
78.17
82.66
83.92
80.83
72.95
60.53
44.61
26.88
9.30
-6.19
-18.11
-25.79
-29.48
-30.25
-29.79
-29.80
-31.48
-35.01
-39.57
-43.59
-45.55
-44.74
-41.64
-37.69
-34.54
-33.09
-32.94
-32.59
-30.10
-24.16
-14.56
-2.31
10.96
23.79
35.30
45.30
53.93
61.25
67.00
70.74
72.05
70.96
68.03
64.24
60.69
58.16
56.93
56.61
56.49
55.80
54.18
51.73
48.98
46.45
44.29
42.11
39.10
34.47
27.91
19.75
10.80
1.97
-6.11
-13.26
-19.65
-25.53
-31.13
-36.51
-41.63
-46.37
-50.50
-53.53
-54.83
-53.84
-50.23
-44.26
-36.55
-28.06
-19.51
-11.38
-3.83
3.05
9.05
13.79
16.90
18.21
17.97
16.76
15.29
14.17
13.67
13.74
14.13
14.61
15.01
15.29
15.41
15.30
14.81
13.81
12.20
9.99
7.33
4.42
1.57
-1.06
-3.32
-5.28
-7.10
-9.17
-11.88
-15.61
-20.48
-26.17
-31.92
-36.62
-39.10
-38.48
-34.52
-27.67
-19.02
-9.98
-1.91
4.29
8.26
10.21
10.78
10.63
10.30
10.07
10.05
10.24
10.67
11.35
12.20
12.88
13.02
12.32
10.76
8.61
6.37
4.47
3.13
2.36
1.95
1.68
1.33
0.72
-0.29
-1.77
-3.81
-6.43
-9.61
-13.34
-17.47
-21.66
-25.31
-27.64
-27.84
-25.47
-20.67
-14.07
-6.62
0.79
7.52
13.29
18.05
21.87
24.84
27.09
28.78
30.08
31.08
31.72
31.82
31.13
29.54
27.12
24.17
21.07
18.24
16.03
14.75
14.63
15.72
17.64
19.69
20.97
20.74
18.79
15.55
11.95
8.99
7.35
7.15
8.06
9.48
10.81
11.56
11.32
9.75
6.70
2.16
-3.53
-9.77
-15.79
-20.88
-24.52
-26.50
-26.95
-26.16
-24.54
-22.48
-20.29
-18.20
-16.33
-14.75
-13.51
-12.58
-11.89
-11.32
-10.71
-9.98
-9.10
-8.21
-7.49
-7.27
-7.76
-9.12
-11.40
-14.38
-17.72
-20.93
-23.60
-25.37
-26.24
-26.46
-26.45
-26.68
-27.54
-29.11
-31.23
-33.42
-34.98
-35.12
-33.21
-28.92
-22.43
-14.50
-6.19
1.39
7.47
11.77
14.49
16.12
17.20
18.19
19.27
20.50
21.87
23.30
24.72
26.12
27.40
28.52
29.38
29.91
30.08
29.91
29.49
29.00
28.56
28.22
27.97
27.66
27.14
26.22
24.77
22.78
20.34
17.52
14.39
10.95
7.15
3.01
-1.36
-5.72
-9.85
-13.52
-16.61
-18.94
-20.23
-20.16
-18.46
-15.11
-10.54
-5.49
-0.73
3.18
6.16
8.47
10.52
12.54
14.48
16.00
16.76
16.67
15.92
15.00
14.41
14.50
15.23
16.35
17.40
18.01
18.00
17.42
16.44
15.27
14.01
12.64
11.11
9.44
7.72
6.16
4.92
4.00
3.18
2.15
0.57
-1.82
-5.08
-9.31
-14.56
-20.81
-27.73
-34.63
-40.48
-44.19
-45.13
-43.40
-39.80
-35.46
-31.35
-27.84
-24.78
-21.78
-18.61
-15.39
-12.56
-10.54
-9.37
-8.77
-8.21
-7.20
-5.66
-3.85
-2.27
-1.42
-1.53
-2.40
-3.65
-4.80
-5.64
-6.21
-6.90
-8.18
-10.39
-13.57
-17.40
-21.29
-24.65
-27.03
-28.27
-28.46
-27.82
-26.61
-25.08
-23.61
-22.56
-22.32
-22.98
-24.22
-25.27
-25.28
-23.76
-20.96
-17.87
-15.80
-15.70
-17.69
-20.93
-24.00
-25.61
-25.03
-22.31
-17.97
-12.74
-7.18
-1.69
3.42
7.87
11.47
14.25
16.48
18.61
20.94
23.43
25.61
26.82
26.54
24.72
21.74
18.28
14.95
12.10
9.74
7.58
5.28
2.53
-0.79
-4.64
-8.79
-12.87
-16.53
-19.54
-21.93
-23.94
-25.92
-28.07
-30.26
-31.98
-32.41
-30.73
-26.36
-19.21
-9.83
0.59
10.45
18.16
22.51
23.09
20.40
15.51
9.71
4.11
-0.48
-3.46
-4.27
-2.44
2.16
9.06
17.09
24.71
30.57
34.14
35.74
36.37
37.08
38.61
41.15
44.48
48.06
51.14
52.74
51.79
47.49
39.62
28.85
16.54
4.17
-7.27
-17.65
-27.63
-38.12
-49.65
-62.10
-74.67
-86.34
-96.18
-103.61
-108.31
-110.09
-108.86
-104.86
-98.74
-91.55
-84.11
-76.42
-67.26
-54.53
-36.28
-11.82
17.68
49.36
79.67
105.50
124.87
137.04
142.04
140.36
132.78
120.61
105.80
90.58
76.89
65.61
56.41
47.92
38.53
27.09
13.40
-1.85
-17.47
-32.30
-45.62
-57.20
-67.15
-75.52
-82.15
-86.50
-88.01
-86.31
-81.55
-74.38
-65.80
-56.75
-47.91
-39.57
-31.72
-24.31
-17.30
-10.77
-4.70
0.98
6.46
11.87
17.21
22.23
26.68
30.31
33.08
35.09
36.56
37.71
38.69
39.59
40.38
40.98
41.24
41.01
40.18
38.77
36.83
34.51
31.92
29.12
26.10
22.79
19.11
14.94
10.24
5.07
-0.19
-4.88
-8.14
-9.17
-7.57
-3.45
2.60
9.77
17.36
24.98
32.43
39.66
46.42
52.31
56.78
59.36
59.82
58.22
54.90
50.27
44.88
39.32
34.20
30.05
27.23
25.68
24.99
24.46
23.50
21.82
19.66
17.60
16.31
16.23
17.43
19.73
22.78
26.27
29.77
32.77
34.56
34.51
32.27
28.08
22.74
17.36
13.00
10.27
9.41
10.34
12.99
17.31
23.19
30.22
37.52
43.89
48.08
49.17
46.82
41.32
33.47
24.35
15.06
6.53
-0.66
-6.27
-10.41
-13.38
-15.58
-17.36
-18.97
-20.57
-22.29
-24.16
-26.11
-28.02
-29.67
-31.00
-32.11
-33.36
-35.20
-38.05
-42.10
-47.07
-52.27
-56.60
-58.94
-58.40
-54.75
-48.47
-40.66
-32.58
-25.28
-19.24
-14.42
-10.52
-7.21
-4.38
-2.08
-0.38
0.77
1.45
1.85
1.98
1.80
1.21
0.21
-1.12
-2.57
-4.01
-5.39
-6.76
-8.24
-9.83
-11.49
-13.03
-14.30
-15.21
-15.82
-16.30
-16.91
-17.94
-19.65
-22.17
-25.43
-29.05
-32.34
-34.53
-34.87
-33.02
-29.12
-23.78
-17.86
-12.27
-7.68
-4.43
-2.51
-1.60
-1.23
-0.90
-0.28
0.72
1.83
2.54
2.31
0.86
-1.67
-4.62
-7.15
-8.50
-8.33
-6.83
-4.51
-1.92
0.59
2.88
5.05
7.14
9.09
10.76
11.98
12.71
12.99
12.93
12.58
11.99
11.18
10.28
9.52
9.25
9.79
11.37
13.96
17.24
20.74
23.92
26.45
28.25
29.48
30.34
30.92
31.05
30.49
29.03
26.67
23.71
20.59
17.74
15.41
13.67
12.42
11.56
10.96
10.48
9.93
9.12
7.85
6.09
3.92
1.55
-0.82
-3.07
-5.26
-7.52
-10.03
-12.99
-16.39
-20.05
-23.53
-26.19
-27.32
-26.45
-23.47
-18.75
-13.04
-7.20
-1.90
2.51
5.93
8.46
10.10
10.83
10.58
9.46
7.73
5.80
4.06
2.79
2.02
1.67
1.63
1.73
1.92
2.02
1.81
1.05
-0.36
-2.34
-4.62
-6.87
-8.89
-10.64
-12.20
-13.70
-15.29
-17.07
-19.24
-21.92
-25.07
-28.34
-30.99
-32.15
-31.21
-28.06
-23.21
-17.54
-11.86
-6.69
-2.15
1.81
5.21
7.89
9.67
10.43
10.28
9.51
8.45
7.39
6.46
5.72
5.24
5.05
5.13
5.29
5.20
4.47
2.87
0.42
-2.53
-5.45
-7.78
-9.14
-9.36
-8.51
-6.84
-4.78
-2.90
-1.96
-2.59
-5.19
-9.60
-15.04
-20.35
-24.19
-25.61
-24.17
-20.13
-14.29
-7.73
-1.46
3.77
7.63
10.25
12.01
13.43
14.98
16.91
19.25
21.87
24.46
26.78
28.56
29.66
30.01
29.69
28.91
27.93
27.07
26.52
26.36
26.51
26.82
27.07
27.12
26.86
26.31
25.49
24.42
23.10
21.40
19.22
16.44
13.08
9.32
5.62
2.54
0.62
0.13
0.96
2.63
4.51
6.03
6.91
7.16
6.98
6.59
6.17
5.82
5.54
5.33
5.15
4.87
4.39
3.63
2.68
1.71
1.00
0.73
1.02
1.82
3.06
4.58
6.20
7.67
8.66
8.89
8.19
6.54
4.08
1.01
-2.51
-6.33
-10.24
-14.02
-17.39
-20.09
-21.96
-22.92
-22.98
-22.14
-20.44
-17.98
-15.01
-11.85
-8.83
-6.12
-3.71
-1.54
0.44
2.06
3.03
3.10
2.26
0.78
-0.86
-2.23
-3.10
-3.50
-3.61
-3.61
-3.59
-3.51
-3.42
-3.38
-3.56
-4.09
-5.02
-6.31
-7.86
-9.56
-11.28
-12.91
-14.32
-15.46
-16.41
-17.44
-18.96
-21.29
-24.43
-27.98
-31.17
-33.15
-33.27
-31.30
-27.49
-22.41
-16.74
-11.09
-5.98
-1.71
1.51
3.65
4.77
5.04
4.70
3.96
3.09
2.28
1.76
1.62
1.88
2.32
2.65
2.58
2.01
1.06
0.01
-0.89
-1.55
-2.04
-2.61
-3.35
-4.25
-5.12
-5.81
-6.32
-6.88
-7.81
-9.40
-11.76
-14.79
-18.24
-21.82
-25.16
-27.78
-29.22
-29.03
-27.05
-23.48
-18.87
-13.94
-9.30
-5.30
-1.98
0.77
3.08
4.98
6.47
7.55
8.31
8.82
9.18
9.36
9.38
9.26
9.10
8.99
8.97
9.02
9.09
9.28
9.74
10.58
11.74
12.91
13.61
13.45
12.35
10.53
8.54
6.87
5.85
5.49
5.61
5.86
5.88
5.32
3.93
1.61
-1.44
-4.69
-7.39
-8.80
-8.41
-6.18
-2.49
2.08
6.91
11.56
15.71
19.13
21.60
22.91
22.99
21.93
20.11
18.00
16.09
14.69
13.92
13.60
13.46
13.15
12.53
11.61
10.64
9.88
9.44
9.19
8.85
8.14
6.95
5.48
3.99
2.72
1.66
0.57
-0.91
-2.97
-5.65
-8.76
-12.02
-15.17
-18.02
-20.35
-21.89
-22.36
-21.56
-19.54
-16.64
-13.43
-10.50
-8.24
-6.72
-5.70
-4.83
-3.87
-2.80
-1.73
-0.85
-0.30
-0.12
-0.28
-0.76
-1.51
-2.49
-3.64
-4.84
-5.96
-6.92
-7.64
-8.08
-8.28
-8.31
-8.43
-8.89
-9.94
-11.60
-13.71
-15.99
-18.19
-20.21
-22.10
-23.93
-25.72
-27.47
-29.22
-31.14
-33.39
-35.97
-38.53
-40.40
-40.92
-39.68
-36.87
-33.10
-29.12
-25.42
-22.12
-19.05
-16.11
-13.41
-11.38
-10.42
-10.71
-12.01
-13.76
-15.29
-16.10
-15.99
-15.05
-13.56
-11.73
-9.70
-7.35
-4.55
-1.22
2.46
6.07
9.00
10.77
11.20
10.54
9.42
8.52
8.35
9.00
10.19
11.49
12.57
13.34
13.84
14.13
14.05
13.35
11.82
9.60
7.21
5.47
5.10
6.42
9.20
12.72
16.16
18.98
20.99
22.37
23.36
24.10
24.55
24.68
24.63
24.73
25.45
27.07
29.44
31.97
33.72
33.82
31.77
27.73
22.53
17.46
13.80
12.53
13.99
17.86
23.30
29.27
34.72
38.84
41.21
41.84
41.26
40.35
40.14
41.24
43.64
46.57
49.05
50.43
50.95
51.63
53.73
58.07
64.55
72.31
80.21
87.48
93.89
99.57
104.52
108.21
109.68
107.93
102.44
93.38
81.61
68.23
54.29
40.58
27.63
15.88
5.80
-2.12
-7.50
-10.32
-11.08
-10.74
-10.40
-10.84
-12.29
-14.27
-15.92
-16.31
-14.88
-11.56
-6.83
-1.54
3.31
6.89
8.67
8.71
7.56
6.14
5.39
5.92
8.03
11.54
16.08
21.00
25.44
28.28
28.47
25.48
19.75
12.74
6.48
2.75
2.47
5.44
10.53
16.35
21.72
25.93
28.69
29.98
29.84
28.44
25.99
22.74
18.88
14.43
9.20
2.92
-4.73
-14.00
-24.90
-37.20
-50.29
-63.43
-75.86
-87.03
-96.69
-104.72
-110.93
-114.96
-116.40
-115.02
-111.13
-105.52
-99.30
-93.40
-88.17
-83.30
-78.08
-72.01
-65.11
-58.07
-51.85
-47.23
-44.35
-42.74
-41.57
-40.12
-38.08
-35.54
-32.82
-30.20
-27.83
-25.77
-24.01
-22.57
-21.43
-20.31
-18.81
-16.44
-13.02
-8.74
-4.20
-0.02
3.33
5.80
7.57
8.86
9.84
10.50
10.88
11.07
11.31
11.78
12.60
13.64
14.70
15.49
15.82
15.64
14.94
13.80
12.27
10.45
8.44
6.33
4.15
1.90
-0.49
-2.96
-5.37
-7.52
-9.22
-10.47
-11.37
-12.15
-12.99
-14.02
-15.25
-16.64
-18.12
-19.61
-20.99
-22.19
-23.13
-23.75
-24.14
-24.41
-24.81
-25.55
-26.74
-28.30
-29.87
-30.95
-30.98
-29.55
-26.64
-22.56
-17.91
-13.33
-9.23
-5.77
-2.86
-0.38
1.72
3.32
4.30
4.63
4.47
4.08
3.65
3.22
2.65
1.79
0.68
-0.42
-1.12
-1.19
-0.70
-0.04
0.23
-0.33
-1.86
-4.18
-6.90
-9.60
-11.97
-13.89
-15.39
-16.72
-18.16
-20.07
-22.64
-25.80
-29.17
-32.07
-33.79
-33.73
-31.65
-27.67
-22.27
-16.10
-9.90
-4.24
0.43
3.94
6.31
7.73
8.45
8.81
9.02
9.28
9.61
9.92
10.07
9.93
9.40
8.48
7.27
5.89
4.48
3.11
1.80
0.51
-0.81
-2.23
-3.80
-5.55
-7.43
-9.32
-11.15
-12.85
-14.51
-16.31
-18.47
-21.15
-24.34
-27.75
-30.79
-32.78
-33.06
-31.24
-27.37
-21.88
-15.54
-9.19
-3.46
1.27
5.02
7.97
10.37
12.38
14.02
15.21
15.89
16.08
15.91
15.59
15.34
15.26
15.27
15.18
14.80
14.06
13.13
12.26
11.69
11.42
11.23
10.69
9.41
7.28
4.46
1.36
-1.65
-4.40
-6.93
-9.41
-12.02
-14.83
-17.84
-21.04
-24.37
-27.67
-30.52
-32.27
-32.21
-29.94
-25.51
-19.51
-12.75
-6.01
0.25
5.86
10.79
14.93
18.13
20.15
20.97
20.72
19.73
18.39
17.03
15.92
15.19
14.93
15.10
15.53
15.93
16.10
15.91
15.40
14.76
14.07
13.25
12.09
10.38
8.06
5.37
2.69
0.34
-1.60
-3.35
-5.33
-7.95
-11.39
-15.64
-20.38
-25.12
-29.19
-31.82
-32.29
-30.19
-25.61
-19.18
-11.89
-4.73
1.61
6.90
11.20
14.62
17.13
18.63
19.02
18.47
17.33
16.12
15.26
14.93
15.10
15.53
15.96
16.13
15.84
14.98
13.66
12.08
10.58
9.37
8.54
7.85
7.00
5.73
3.95
1.77
-0.68
-3.36
-6.32
-9.67
-13.41
-17.38
-21.25
-24.54
-26.79
-27.54
-26.47
-23.40
-18.43
-11.94
-4.62
2.70
9.24
14.36
17.86
19.80
20.49
20.31
19.57
18.46
17.03
15.28
13.30
11.27
9.46
8.17
7.49
7.29
7.21
6.77
5.54
3.35
0.34
-3.12
-6.52
-9.49
-11.85
-13.65
-15.01
-16.04
-16.74
-17.11
-17.23
-17.44
-18.20
-19.98
-22.83
-26.24
-29.17
-30.41
-29.12
-25.13
-19.05
-11.86
-4.57
2.19
8.13
13.16
17.12
19.67
20.48
19.42
16.68
12.76
8.33
3.85
-0.33
-4.03
-7.11
-9.49
-11.12
-12.07
-12.49
-12.51
-12.20
-11.55
-10.56
-9.19
-7.52
-5.58
-3.40
-0.97
1.64
4.24
6.48
7.98
8.40
7.56
5.47
2.41
-1.11
-4.43
-6.82
-7.69
-6.67
-3.78
0.70
6.31
12.53
18.92
25.09
30.65
35.27
38.80
41.28
42.96
44.09
44.85
45.18
44.95
44.05
42.49
40.40
37.81
34.66
30.95
26.96
23.28
20.78
20.05
21.02
22.83
24.14
23.76
21.25
16.99
11.86
6.66
1.79
-2.83
-7.43
-12.13
-16.86
-21.40
-25.69
-29.72
-33.46
-36.48
-38.17
-37.85
-35.18
-30.39
-24.19
-17.53
-11.18
-5.71
-1.42
1.48
2.86
2.70
1.33
-0.68
-2.61
-3.81
-3.95
-3.02
-1.29
0.89
3.06
4.84
5.83
5.78
4.78
3.35
2.15
1.72
2.18
3.07
3.70
3.37
1.79
-0.92
-4.35
-8.07
-11.73
-14.95
-17.30
-18.35
-17.89
-16.04
-13.35
-10.52
-8.13
-6.34
-4.90
-3.30
-1.07
2.10
6.31
11.50
17.34
23.28
28.55
32.28
33.87
33.20
30.71
27.23
23.88
21.54
20.87
22.11
25.07
29.13
33.33
36.55
37.83
36.83
33.88
29.92
26.00
22.81
20.24
17.57
13.75
7.97
0.01
-9.84
-20.65
-31.11
-39.53
-44.21
-43.85
-38.32
-28.91
-18.07
-8.56
-2.33
0.04
-0.90
-4.19
-9.29
-16.47
-26.28
-38.96
-54.06
-70.51
-87.17
-103.39
-118.94
-133.67
-146.99
-157.79
-164.75
-167.08
-165.00
-159.82
-153.49
-147.76
-143.79
-141.65
-140.48
-138.97
-135.79
-129.86
-120.57
-107.90
-92.32
-74.83
-56.73
-39.30
-23.31
-8.82
4.88
18.72
33.46
49.36
65.93
82.30
97.55
110.97
122.23
131.36
138.44
143.68
147.14
148.84
148.66
146.45
142.12
135.84
128.03
119.32
110.38
101.62
93.14
84.61
75.57
65.57
54.51
42.63
30.54
18.94
8.29
-1.32
-10.17
-18.75
-27.51
-36.55
-45.63
-54.25
-61.75
-67.49
-70.94
-71.64
-69.31
-63.89
-55.71
-45.48
-34.23
-23.08
-12.90
-4.23
2.80
8.24
12.26
15.01
16.69
17.58
18.09
18.59
19.28
20.13
20.95
21.62
22.07
22.46
22.79
22.98
22.65
21.46
19.21
16.08
12.53
9.03
5.85
2.92
-0.05
-3.45
-7.57
-12.51
-18.15
-24.07
-29.51
-33.47
-34.89
-33.00
-27.72
-19.66
-9.98
0.10
9.64
18.23
25.65
31.72
36.07
38.31
38.27
36.28
33.12
29.77
27.10
25.52
25.12
25.64
26.79
28.13
29.22
29.57
28.74
26.57
23.24
19.26
15.20
11.46
8.12
5.02
1.84
-1.72
-5.96
-10.96
-16.63
-22.47
-27.58
-30.74
-30.85
-27.33
-20.43
-11.21
-1.10
8.57
16.95
23.71
28.87
32.45
34.39
34.57
33.01
30.04
26.32
22.68
19.87
18.33
18.02
18.56
19.27
19.48
18.71
16.81
13.93
10.53
7.04
3.72
0.56
-2.66
-6.18
-10.12
-14.45
-19.09
-23.91
-28.83
-33.57
-37.55
-39.81
-39.31
-35.32
-27.87
-17.84
-6.64
4.28
13.90
21.81
28.01
32.57
35.47
36.53
35.73
33.37
30.06
26.61
23.79
22.06
21.48
21.81
22.55
23.14
23.04
21.91
19.67
16.47
12.63
8.54
4.46
0.56
-3.12
-6.67
-10.19
-13.96
-18.30
-23.42
-29.19
-34.94
-39.50
-41.56
-40.14
-34.97
-26.60
-16.11
-4.79
6.34
16.54
25.32
32.30
37.17
39.80
40.37
39.35
37.37
35.06
32.86
31.08
29.90
29.36
29.33
29.49
29.28
28.21
26.03
22.87
19.13
15.30
11.71
8.44
5.42
2.55
-0.16
-2.80
-5.60
-9.05
-13.68
-19.70
-26.58
-33.08
-37.53
-38.48
-35.25
-28.14
-18.29
-7.14
3.92
13.95
22.41
29.11
33.98
37.09
38.64
38.94
38.42
37.49
36.55
35.90
35.77
36.20
37.08
38.08
38.80
38.89
38.19
36.80
34.94
32.82
30.47
27.87
24.90
21.62
18.19
14.88
11.95
9.48
7.28
4.90
1.84
-2.12
-6.68
-10.89
-13.32
-12.58
-7.79
0.88
12.37
24.95
36.91
46.97
54.50
59.47
62.20
63.14
62.78
61.65
60.14
58.38
56.03
52.38
46.48
37.69
26.12
12.68
-1.11
-13.65
-23.86
-31.50
-37.08
-41.65
-46.28
-51.92
-59.28
-68.87
-81.01
-95.72
-112.52
-130.42
-148.15
-164.53
-178.79
-190.55
-199.68
-205.88
-208.62
-207.21
-201.15
-190.44
-175.80
-158.49
-140.04
-121.98
-105.53
-91.35
-79.37
-68.86
-58.66
-47.52
-34.60
-19.64
-3.05
14.34
31.66
48.22
63.75
78.33
92.20
105.51
117.96
128.74
136.54
139.74
136.67
126.02
107.31
81.42
50.90
19.79
-7.25
-26.32
-35.62
-35.88
-29.69
-19.92
-8.38
4.71
20.00
37.63
56.36
73.78
87.52
96.49
101.51
104.70
108.14
112.77
117.92
121.93
123.15
120.86
115.44
108.03
99.83
91.54
83.18
74.36
64.63
53.86
42.31
30.48
18.90
7.86
-2.60
-12.71
-22.69
-32.52
-41.92
-50.31
-57.04
-61.61
-63.86
-64.12
-63.14
-61.84
-61.12
-61.43
-62.77
-64.54
-65.86
-65.83
-63.91
-60.01
-54.54
-48.16
-41.51
-35.12
-29.31
-24.30
-20.27
-17.35
-15.60
-14.89
-14.90
-15.17
-15.27
-14.89
-13.91
-12.39
-10.48
-8.42
-6.50
-5.05
-4.39
-4.70
-5.92
-7.72
-9.62
-11.14
-12.01
-12.31
-12.35
-12.54
-13.27
-14.75
-17.00
-19.88
-23.02
-25.87
-27.75
-27.95
-25.97
-21.69
-15.49
-8.13
-0.60
6.17
11.57
15.35
17.61
18.70
18.99
18.71
17.92
16.58
14.72
12.49
10.25
8.35
7.03
6.25
5.77
5.21
4.27
2.81
0.90
-1.25
-3.41
-5.40
-7.17
-8.76
-10.34
-12.13
-14.41
-17.34
-20.93
-24.92
-28.80
-31.86
-33.38
-32.83
-29.98
-25.04
-18.49
-11.10
-3.59
3.33
9.18
13.69
16.78
18.54
19.18
18.92
18.01
16.66
15.09
13.53
12.17
11.15
10.44
9.91
9.30
8.38
6.99
5.10
2.77
0.18
-2.48
-5.03
-7.33
-9.41
-11.42
-13.70
-16.68
-20.70
-25.84
-31.74
-37.63
-42.53
-45.44
-45.71
-43.20
-38.29
-31.84
-24.86
-18.34
-12.99
-9.19
-6.93
-6.00
-6.12
-7.00
-8.47
-10.45
-12.91
-15.88
-19.40
-23.44
-27.81
-32.10
-35.64
-37.61
-37.17
-33.72
-27.04
-17.47
-5.78
6.87
19.32
30.56
39.94
47.17
52.20
55.09
55.97
55.12
53.08
50.62
48.55
47.44
47.40
48.11
49.02
49.65
49.81
49.52
48.86
47.77
45.97
43.09
38.86
33.28
26.71
19.70
12.89
6.75
1.52
-2.90
-6.79
-10.52
-14.35
-18.33
-22.37
-26.31
-29.97
-33.18
-35.88
-37.95
-39.37
-40.20
-40.64
-41.05
-41.81
-43.13
-44.75
-45.89
-45.50
-42.63
-36.89
-28.68
-18.90
-8.57
1.68
11.68
21.63
31.69
41.66
50.97
58.89
64.91
68.96
71.37
72.69
73.38
73.54
72.96
71.09
67.33
61.23
52.78
42.49
31.25
20.19
10.27
2.17
-3.92
-8.11
-10.75
-12.29
-13.23
-14.05
-15.25
-17.23
-20.08
-23.52
-26.89
-29.33
-30.05
-28.66
-25.21
-20.27
-14.66
-9.23
-4.62
-1.16
1.14
2.46
3.07
3.24
3.13
2.84
2.33
1.61
0.69
-0.27
-1.11
-1.66
-1.86
-1.77
-1.58
-1.54
-1.83
-2.51
-3.43
-4.36
-5.03
-5.29
-5.13
-4.76
-4.47
-4.66
-5.64
-7.68
-10.85
-14.97
-19.58
-23.89
-27.03
-28.25
-27.21
-24.07
-19.42
-14.00
-8.47
-3.19
1.73
6.26
10.35
13.89
16.78
19.02
20.77
22.20
23.46
24.49
25.17
25.34
25.02
24.33
23.50
22.73
22.13
21.67
21.23
20.67
19.83
18.56
16.69
14.10
10.78
6.93
2.95
-0.69
-3.61
-5.69
-7.18
-8.62
-10.54
-13.29
-16.79
-20.56
-23.80
-25.73
-25.72
-23.57
-19.47
-13.95
-7.77
-1.66
3.80
8.35
11.97
14.80
16.99
18.64
19.76
20.35
20.47
20.25
19.88
19.48
19.17
18.96
18.84
18.79
18.80
18.81
18.72
18.40
17.72
16.67
15.29
13.67
11.85
9.88
7.75
5.52
3.31
1.24
-0.62
-2.32
-4.01
-5.91
-8.19
-10.99
-14.27
-17.89
-21.51
-24.68
-26.85
-27.51
-26.39
-23.54
-19.35
-14.41
-9.35
-4.64
-0.50
3.02
5.97
8.45
10.52
12.24
13.64
14.72
15.41
15.60
15.30
14.62
13.80
13.14
12.81
12.81
12.96
13.01
12.80
12.33
11.73
11.09
10.46
9.72
8.73
7.40
5.75
3.92
2.09
0.40
-1.08
-2.35
-3.47
-4.52
-5.62
-6.87
-8.43
-10.37
-12.71
-15.31
-17.85
-19.89
-20.90
-20.51
-18.56
-15.23
-10.95
-6.31
-1.86
2.06
5.29
7.85
9.80
11.20
12.00
12.21
11.85
11.07
10.07
9.10
8.32
7.85
7.65
7.67
7.81
7.92
7.94
7.81
7.53
7.15
6.75
6.37
5.97
5.42
4.59
3.32
1.60
-0.43
-2.55
-4.52
-6.19
-7.53
-8.66
-9.72
-10.88
-12.27
-14.04
-16.24
-18.84
-21.59
-24.02
-25.52
-25.52
-23.76
-20.35
-15.80
-10.72
-5.73
-1.21
2.67
5.90
8.47
10.37
11.55
12.00
11.78
11.10
10.25
9.52
9.22
9.43
10.10
10.99
11.81
12.32
12.42
12.13
11.53
10.70
9.61
8.30
6.80
5.29
3.94
2.91
2.14
1.49
0.69
-0.41
-1.85
-3.52
-5.24
-6.89
-8.45
-9.98
-11.52
-13.12
-14.79
-16.57
-18.49
-20.55
-22.56
-24.14
-24.79
-24.10
-21.89
-18.36
-13.99
-9.37
-4.99
-1.12
2.13
4.78
6.89
8.50
9.68
10.52
11.08
11.41
11.52
11.40
11.10
10.68
10.28
9.97
9.77
9.61
9.45
9.24
8.96
8.59
8.04
7.24
6.16
4.94
3.76
2.81
2.08
1.38
0.37
-1.20
-3.35
-5.82
-8.25
-10.31
-11.86
-12.95
-13.77
-14.50
-15.25
-16.12
-17.16
-18.51
-20.11
-21.77
-23.07
-23.48
-22.59
-20.24
-16.63
-12.23
-7.66
-3.44
0.10
2.85
4.92
6.48
7.72
8.73
9.53
10.04
10.27
10.23
10.07
9.95
9.96
10.05
10.10
9.91
9.42
8.69
7.89
7.20
6.68
6.26
5.80
5.19
4.39
3.52
2.68
1.93
1.17
0.25
-0.94
-2.42
-4.06
-5.72
-7.30
-8.81
-10.33
-11.91
-13.54
-15.20
-16.89
-18.58
-20.25
-21.69
-22.51
-22.28
-20.68
-17.73
-13.77
-9.37
-5.10
-1.28
2.04
4.91
7.37
9.35
10.68
11.27
11.15
10.61
10.01
9.69
9.81
10.28
10.87
11.33
11.55
11.55
11.44
11.25
10.98
10.50
9.73
8.74
7.70
6.84
6.29
5.98
5.63
4.91
3.57
1.64
-0.66
-2.97
-5.02
-6.73
-8.24
-9.87
-11.86
-14.41
-17.45
-20.85
-24.32
-27.59
-30.31
-32.11
-32.64
-31.54
-28.71
-24.24
-18.60
-12.41
-6.37
-0.96
3.58
7.27
10.21
12.41
13.75
14.05
13.29
11.67
9.66
7.83
6.64
6.22
6.44
6.99
7.60
8.17
8.73
9.36
10.08
10.76
11.16
11.10
10.52
9.55
8.42
7.39
6.57
5.93
5.27
4.35
2.96
1.09
-1.16
-3.56
-5.81
-7.73
-9.23
-10.44
-11.59
-12.95
-14.71
-16.87
-19.19
-21.25
-22.55
-22.60
-21.17
-18.26
-14.18
-9.43
-4.59
-0.11
3.72
6.83
9.31
11.28
12.80
13.85
14.37
14.33
13.81
12.99
12.19
11.68
11.63
12.02
12.66
13.27
13.59
13.53
13.09
12.44
11.72
11.04
10.45
9.94
9.50
9.12
8.71
8.19
7.44
6.37
5.00
3.46
1.90
0.46
-0.86
-2.15
-3.59
-5.34
-7.42
-9.68
-11.75
-13.14
-13.39
-12.20
-9.58
-5.85
-1.57
2.67
6.40
9.40
11.63
13.19
14.18
14.64
14.58
14.04
13.16
12.15
11.25
10.60
10.23
10.04
9.89
9.70
9.49
9.33
9.26
9.22
9.08
8.72
8.05
7.11
5.97
4.70
3.29
1.71
0.01
-1.72
-3.31
-4.65
-5.73
-6.63
-7.54
-8.64
-10.06
-11.90
-14.14
-16.67
-19.17
-21.17
-22.08
-21.53
-19.42
-16.11
-12.22
-8.41
-5.16
-2.62
-0.63
1.06
2.70
4.38
6.02
7.46
8.50
9.05
9.08
8.69
8.04
7.29
6.55
5.87
5.25
4.67
4.17
3.82
3.70
3.78
3.89
3.78
3.17
1.94
0.16
-1.93
-4.09
-6.08
-7.81
-9.22
-10.36
-11.24
-12.01
-12.85
-14.02
-15.75
-18.13
-21.01
-24.06
-26.77
-28.62
-29.19
-28.27
-25.89
-22.37
-18.19
-13.86
-9.80
-6.28
-3.38
-1.07
0.78
2.35
3.77
5.17
6.58
7.95
9.19
10.17
10.84
11.21
11.40
11.52
11.68
11.89
12.12
12.29
12.29
12.06
11.60
11.00
10.32
9.61
8.83
7.87
6.68
5.25
3.65
1.97
0.29
-1.39
-3.04
-4.61
-5.98
-7.08
-7.93
-8.73
-9.73
-11.09
-12.72
-14.23
-15.04
-14.63
-12.80
-9.66
-5.68
-1.40
2.69
6.30
9.28
11.64
13.46
14.76
15.63
16.08
16.20
16.08
15.87
15.74
15.85
16.25
16.83
17.39
17.72
17.73
17.50
17.15
16.83
16.57
16.27
15.78
15.03
14.05
12.91
11.75
10.60
9.45
8.24
6.92
5.45
3.83
2.07
0.14
-1.97
-4.27
-6.69
-9.08
-11.21
-12.80
-13.58
-13.38
-12.14
-9.98
-7.19
-4.10
-1.06
1.65
3.88
5.60
6.84
7.66
8.12
8.18
7.89
7.36
6.80
6.43
6.43
6.79
7.35
7.91
8.26
8.36
8.30
8.21
8.21
8.28
8.26
7.95
7.23
6.15
4.97
4.07
3.80
4.31
5.44
6.76
7.72
7.73
6.33
3.25
-1.42
-7.13
-12.85
-17.23
-19.06
-17.80
-13.83
-8.34
-2.70
2.27
6.67
11.35
17.21
24.45
32.24
39.07
43.35
44.26
41.90
37.22
31.46
25.66
20.40
15.81
11.66
7.55
2.95
-2.65
-9.56
-17.43
-24.99
-30.08
-30.16
-23.38
-9.62
8.95
28.31
43.98
52.80
54.16
50.07
44.02
39.27
37.59
38.96
42.31
46.58
51.40
56.89
63.09
69.34
74.24
76.33
74.91
70.65
65.26
60.86
58.89
59.59
62.05
64.75
66.33
66.06
63.87
60.19
55.51
50.27
44.84
39.61
35.06
31.64
29.62
28.90
29.10
29.66
29.98
29.61
28.23
25.68
21.95
17.26
11.96
6.43
0.93
-4.47
-9.96
-15.70
-21.86
-28.43
-35.37
-42.64
-50.25
-58.18
-66.27
-74.18
-81.43
-87.59
-92.38
-95.74
-97.70
-98.28
-97.49
-95.28
-91.77
-87.19
-81.98
-76.55
-71.24
-66.21
-61.45
-56.92
-52.60
-48.56
-44.87
-41.63
-38.84
-36.48
-34.42
-32.55
-30.73
-28.83
-26.77
-24.55
-22.23
-19.96
-17.90
-16.30
-15.31
-15.06
-15.53
-16.60
-18.04
-19.61
-21.10
-22.39
-23.52
-24.53
-25.60
-26.92
-28.63
-30.76
-33.14
-35.35
-36.85
-37.10
-35.79
-32.95
-28.88
-24.04
-18.87
-13.71
-8.81
-4.37
-0.55
2.57
5.00
6.82
8.13
8.94
9.26
9.18
8.84
8.50
8.32
8.27
8.10
7.51
6.35
4.75
3.00
1.39
0.02
-1.28
-2.79
-4.69
-6.87
-9.07
-10.99
-12.55
-13.89
-15.31
-17.11
-19.45
-22.37
-25.74
-29.33
-32.77
-35.53
-37.01
-36.74
-34.54
-30.67
-25.75
-20.55
-15.70
-11.52
-8.03
-5.08
-2.55
-0.35
1.52
3.09
4.42
5.58
6.52
7.14
7.22
6.66
5.50
3.95
2.37
1.06
0.24
-0.06
0.06
0.38
0.65
0.58
-0.05
-1.38
-3.37
-5.81
-8.44
-10.90
-13.00
-14.65
-16.00
-17.30
-18.92
-21.15
-24.13
-27.64
-31.18
-33.94
-35.15
-34.31
-31.40
-26.89
-21.48
-15.85
-10.38
-5.20
-0.31
4.19
8.03
10.86
12.46
12.85
12.36
11.46
10.58
9.98
9.68
9.58
9.50
9.32
8.97
8.49
7.96
7.48
7.09
6.67
6.06
5.05
3.57
1.67
-0.39
-2.38
-4.16
-5.74
-7.29
-9.07
-11.32
-14.20
-17.73
-21.73
-25.77
-29.20
-31.21
-31.05
-28.37
-23.32
-16.60
-9.26
-2.34
3.45
7.82
10.89
12.99
14.44
15.43
16.05
16.33
16.39
16.40
16.45
16.61
16.73
16.65
16.21
15.38
14.29
13.20
12.35
11.88
11.70
11.47
10.81
9.34
7.00
3.99
0.76
-2.22
-4.71
-6.81
-8.89
-11.36
-14.57
-18.59
-23.25
-28.15
-32.80
-36.58
-38.90
-39.26
-37.43
-33.56
-28.19
-22.08
-15.90
-10.14
-4.95
-0.40
3.43
6.30
7.89
8.04
6.82
4.64
2.10
-0.23
-2.01
-3.15
-3.80
-4.21
-4.63
-5.23
-6.17
-7.46
-9.02
-10.65
-12.07
-13.02
-13.38
-13.18
-12.54
-11.61
-10.48
-9.27
-8.09
-7.16
-6.71
-7.04
-8.33
-10.69
-14.06
-18.13
-22.36
-25.92
-27.95
-27.73
-25.02
-20.23
-14.21
-7.96
-2.30
2.37
6.00
8.66
10.41
11.19
11.03
10.10
8.78
7.56
6.85
6.79
7.25
7.93
8.51
8.86
8.94
8.86
8.76
8.77
8.92
9.19
9.46
9.57
9.36
8.70
7.48
5.71
3.46
0.88
-1.86
-4.61
-7.25
-9.72
-11.98
-14.15
-16.39
-18.91
-21.82
-25.02
-28.06
-30.18
-30.57
-28.65
-24.26
-17.80
-10.02
-1.78
6.15
13.31
19.44
24.43
28.23
30.82
32.22
32.59
32.22
31.54
31.05
31.14
32.00
33.43
34.99
36.11
36.31
35.50
33.93
32.07
30.39
29.11
28.14
27.19
25.95
24.28
22.22
19.95
17.59
15.15
12.50
9.44
5.86
1.76
-2.78
-7.63
-12.64
-17.59
-22.14
-25.75
-27.81
-27.82
-25.59
-21.36
-15.73
-9.46
-3.27
2.38
7.23
11.20
14.33
16.69
18.36
19.40
19.87
19.85
19.40
18.73
18.05
17.54
17.26
17.15
17.07
16.98
16.98
17.21
17.75
18.40
18.72
18.23
16.61
13.89
10.43
6.73
3.28
0.36
-1.95
-3.71
-5.11
-6.47
-8.18
-10.64
-14.16
-18.67
-23.67
-28.32
-31.59
-32.66
-31.13
-27.11
-21.14
-14.03
-6.60
0.40
6.43
11.12
14.30
15.99
16.40
15.91
15.00
14.16
13.73
13.90
14.63
15.69
16.72
17.34
17.23
16.27
14.62
12.57
10.52
8.76
7.39
6.23
4.97
3.24
0.85
-2.17
-5.58
-9.07
-12.33
-15.25
-17.84
-20.26
-22.72
-25.45
-28.65
-32.40
-36.66
-41.10
-45.12
-47.92
-48.72
-47.00
-42.78
-36.59
-29.31
-21.88
-14.98
-8.91
-3.64
1.02
5.13
8.60
11.22
12.81
13.41
13.32
13.00
12.91
13.34
14.28
15.48
16.61
17.37
17.64
17.45
16.92
16.10
15.00
13.58
11.82
9.81
7.69
5.65
3.85
2.40
1.28
0.36
-0.61
-1.99
-4.14
-7.26
-11.37
-16.26
-21.50
-26.57
-30.83
-33.58
-34.15
-32.11
-27.42
-20.62
-12.64
-4.57
2.73
8.86
13.92
18.22
22.04
25.44
28.27
30.37
31.66
32.21
32.16
31.64
30.65
29.16
27.14
24.68
21.96
19.24
16.75
14.59
12.73
10.95
8.99
6.56
3.51
-0.13
-4.17
-8.30
-12.26
-15.83
-18.94
-21.59
-23.79
-25.63
-27.28
-29.04
-31.26
-34.12
-37.45
-40.59
-42.59
-42.50
-39.74
-34.36
-26.94
-18.37
-9.47
-0.85
7.11
14.10
19.76
23.69
25.65
25.66
24.18
21.90
19.59
17.85
16.90
16.73
17.04
17.55
17.98
18.13
17.90
17.19
15.90
13.96
11.41
8.34
5.00
1.72
-1.16
-3.47
-5.18
-6.58
-8.07
-10.14
-13.07
-16.87
-21.31
-25.93
-30.18
-33.40
-35.01
-34.50
-31.60
-26.43
-19.51
-11.76
-4.19
2.35
7.44
11.04
13.42
14.93
15.84
16.34
16.59
16.78
17.01
17.25
17.33
16.94
15.90
14.26
12.26
10.27
8.58
7.27
6.25
5.42
4.66
3.97
3.27
2.45
1.33
-0.19
-2.10
-4.26
-6.47
-8.63
-10.76
-12.90
-14.85
-16.17
-16.11
-13.97
-9.28
-2.13
6.96
17.15
27.56
37.56
46.79
55.12
62.47
68.77
73.88
77.74
80.29
81.60
81.77
81.01
79.57
77.78
75.99
74.47
73.28
72.13
70.41
67.26
61.86
53.64
42.51
28.80
13.22
-3.40
-20.21
-36.47
-51.49
-64.80
-76.15
-85.58
-93.56
-100.64
-107.32
-113.63
-119.08
-122.77
-123.78
-121.58
-116.16
-108.10
-98.17
-87.21
-75.82
-64.58
-53.97
-44.50
-36.60
-30.33
-25.30
-20.59
-15.10
-7.92
1.30
12.20
23.84
35.18
45.39
54.07
61.12
66.59
70.46
72.72
73.44
72.87
71.52
69.93
68.51
67.42
66.55
65.57
64.16
62.01
59.05
55.34
51.27
47.46
44.67
43.68
44.92
48.44
53.75
59.96
65.83
70.10
71.62
69.64
63.95
54.95
43.49
30.63
17.45
4.81
-6.60
-16.34
-24.10
-29.86
-33.79
-36.40
-38.27
-40.02
-41.98
-44.26
-46.76
-49.32
-51.84
-54.30
-56.67
-58.85
-60.81
-62.62
-64.64
-67.29
-70.78
-74.71
-78.01
-79.23
-77.08
-71.05
-61.66
-50.29
-38.59
-27.91
-18.89
-11.60
-5.68
-0.85
2.94
5.59
6.94
7.02
6.10
4.57
2.94
1.62
0.76
0.28
-0.21
-1.14
-2.84
-5.22
-7.90
-10.32
-12.08
-13.12
-13.72
-14.29
-15.09
-16.25
-17.77
-19.81
-22.57
-26.20
-30.41
-34.35
-36.75
-36.37
-32.52
-25.23
-15.30
-3.79
8.26
20.07
31.13
41.00
49.22
55.37
59.18
60.67
60.29
58.78
56.95
55.53
54.90
55.01
55.44
55.52
54.55
52.07
48.02
42.78
37.00
31.39
26.41
22.19
18.52
15.02
11.28
6.99
1.87
-4.20
-11.25
-18.97
-26.69
-33.41
-38.03
-39.79
-38.46
-34.49
-28.76
-22.38
-16.27
-11.11
-7.18
-4.52
-2.93
-2.16
-1.97
-2.21
-2.82
-3.76
-4.89
-5.90
-6.49
-6.44
-5.89
-5.22
-4.99
-5.56
-7.01
-9.13
-11.57
-14.10
-16.71
-19.55
-22.80
-26.54
-30.71
-35.28
-40.21
-45.40
-50.57
-55.07
-58.03
-58.50
-55.90
-50.21
-42.05
-32.42
-22.52
-13.31
-5.48
0.69
5.17
8.16
9.98
10.97
11.41
11.50
11.39
11.24
11.29
11.76
12.79
14.20
15.57
16.31
15.94
14.28
11.60
8.45
5.45
3.11
1.59
0.75
0.12
-0.81
-2.64
-5.70
-9.97
-14.92
-19.60
-22.92
-23.88
-22.02
-17.49
-10.99
-3.50
4.02
10.87
16.68
21.35
24.85
27.16
28.21
27.97
26.62
24.50
22.16
20.15
18.95
18.67
19.05
19.52
19.43
18.29
16.07
13.10
9.98
7.16
4.78
2.62
0.30
-2.44
-5.74
-9.54
-13.76
-18.34
-23.12
-27.59
-30.88
-32.01
-30.19
-25.33
-18.05
-9.47
-0.81
6.98
13.41
18.29
21.64
23.51
24.12
23.70
22.64
21.33
20.03
18.82
17.66
16.42
15.08
13.80
12.77
12.11
11.78
11.49
10.80
9.33
6.90
3.66
-0.01
-3.68
-6.98
-9.92
-12.75
-15.86
-19.53
-23.68
-27.77
-30.97
-32.43
-31.56
-28.27
-22.94
-16.28
-9.03
-1.85
4.79
10.57
15.26
18.79
21.20
22.59
23.14
23.03
22.43
21.54
20.60
19.89
19.50
19.38
19.19
18.54
17.08
14.70
11.61
8.23
5.04
2.39
0.49
-0.80
-1.82
-3.12
-5.23
-8.57
-13.10
-18.43
-23.67
-27.79
-29.81
-29.10
-25.62
-19.82
-12.57
-4.81
2.62
9.18
14.55
18.66
21.46
22.98
23.28
22.52
21.00
19.18
17.54
16.47
16.13
16.39
16.85
16.96
16.28
14.58
11.92
8.63
5.14
1.86
-0.96
-3.24
-5.08
-6.68
-8.44
-10.68
-13.63
-17.12
-20.63
-23.33
-24.41
-23.44
-20.42
-15.87
-10.40
-4.54
1.48
7.53
13.42
18.66
22.62
24.72
24.75
22.98
20.05
16.77
13.78
11.55
10.27
9.99
10.54
11.54
12.39
12.44
11.23
8.77
5.53
2.27
-0.35
-2.04
-3.00
-3.70
-4.57
-5.88
-7.62
-9.71
-12.06
-14.56
-16.91
-18.56
-18.80
-16.96
-12.86
-6.87
0.12
7.11
13.30
18.40
22.37
25.32
27.21
27.90
27.29
25.52
22.99
20.38
18.35
17.32
17.41
18.34
19.63
20.72
21.18
20.72
19.30
17.02
14.07
10.72
7.22
3.85
0.84
-1.58
-3.45
-4.94
-6.50
-8.52
-11.13
-13.96
-16.23
-17.00
-15.54
-11.73
-6.03
0.61
7.22
13.03
17.76
21.33
23.85
25.31
25.67
24.90
23.16
20.81
18.32
16.17
14.56
13.58
13.06
12.79
12.55
12.15
11.39
10.17
8.49
6.42
4.22
2.14
0.41
-0.89
-1.79
-2.52
-3.39
-4.83
-7.21
-10.74
-15.29
-20.29
-24.76
-27.54
-27.65
-24.60
-18.64
-10.63
-1.94
6.10
12.43
16.63
18.78
19.38
19.06
18.26
17.30
16.28
15.33
14.57
14.29
14.61
15.50
16.67
17.72
18.19
17.86
16.75
15.09
13.21
11.33
9.58
7.95
6.43
4.98
3.63
2.33
1.03
-0.43
-2.14
-4.23
-6.78
-9.80
-13.28
-16.99
-20.43
-22.80
-23.22
-21.06
-16.32
-9.64
-2.19
4.91
10.95
15.81
19.81
23.31
26.44
29.09
31.04
32.05
32.07
31.11
29.26
26.62
23.44
20.08
16.86
14.09
11.88
10.22
9.08
8.47
8.32
8.40
8.21
7.21
5.00
1.66
-2.25
-6.07
-9.25
-11.71
-13.62
-15.31
-16.85
-18.24
-19.46
-20.77
-22.68
-25.64
-29.66
-34.11
-37.83
-39.63
-38.81
-35.45
-30.37
-24.65
-19.25
-14.71
-11.19
-8.64
-7.06
-6.46
-6.88
-8.21
-10.08
-12.04
-13.57
-14.43
-14.58
-14.27
-13.84
-13.59
-13.62
-13.79
-13.81
-13.41
-12.47
-11.04
-9.44
-7.95
-6.78
-5.93
-5.27
-4.58
-3.74
-2.70
-1.52
-0.31
0.75
1.37
1.32
0.52
-0.83
-2.10
-2.37
-0.87
2.77
8.25
14.70
21.06
26.53
30.75
33.75
35.73
36.74
36.75
35.68
33.80
31.58
29.66
28.26
27.19
25.71
23.04
18.72
12.97
6.51
0.26
-5.06
-9.24
-12.50
-15.39
-18.48
-22.19
-26.67
-31.86
-37.40
-42.80
-47.45
-50.80
-52.56
-52.83
-52.03
-50.72
-49.53
-48.77
-48.49
-48.38
-47.92
-46.48
-43.57
-39.03
-33.04
-26.14
-19.02
-12.29
-6.32
-1.30
2.73
5.62
7.18
7.21
5.69
2.85
-0.85
-4.90
-8.92
-12.65
-16.04
-19.04
-21.70
-24.11
-26.45
-28.94
-31.69
-34.65
-37.53
-39.87
-41.27
-41.52
-40.63
-38.84
-36.44
-33.69
-30.82
-28.13
-26.00
-24.91
-25.26
-27.21
-30.59
-34.85
-39.23
-42.76
-44.55
-43.82
-40.18
-33.73
-25.21
-15.78
-6.74
0.92
6.74
10.86
13.73
15.78
17.30
18.38
19.17
19.88
20.74
21.82
22.93
23.51
23.06
21.29
18.38
14.95
11.80
9.59
8.66
8.87
9.71
10.52
10.61
9.54
7.17
3.70
-0.43
-4.66
-8.55
-11.85
-14.63
-17.15
-19.80
-22.93
-26.69
-31.00
-35.49
-39.50
-42.19
-42.73
-40.67
-36.00
-29.29
-21.47
-13.52
-6.12
0.43
6.06
10.64
13.87
15.42
15.10
13.25
10.75
8.79
8.39
10.02
13.40
17.73
21.98
25.28
27.15
27.63
27.00
25.75
24.33
23.07
22.19
21.83
22.03
22.70
23.75
24.88
25.71
25.80
24.85
22.78
19.84
16.54
13.41
10.92
9.21
8.26
7.75
7.32
6.55
5.07
2.57
-1.07
-5.79
-11.23
-16.73
-21.39
-24.20
-24.29
-21.14
-14.86
-6.18
3.64
13.19
21.38
27.67
32.13
35.22
37.48
39.17
40.40
41.17
41.58
41.84
42.22
42.84
43.62
44.29
44.59
44.41
43.81
42.89
41.72
40.30
38.49
36.27
33.71
30.97
28.20
25.41
22.43
19.01
14.91
9.98
4.22
-2.38
-9.84
-18.16
-27.11
-36.10
-44.19
-50.37
-53.84
-54.44
-52.64
-49.38
-45.66
-42.09
-38.72
-35.13
-30.78
-25.32
-18.91
-12.09
-5.65
-0.21
3.92
6.87
8.98
10.66
12.12
13.38
14.41
15.20
15.88
16.63
17.62
18.72
19.58
19.62
18.33
15.45
11.16
6.04
0.95
-3.34
-6.38
-8.18
-9.24
-10.31
-12.20
-15.45
-20.23
-26.25
-32.79
-38.82
-43.18
-44.84
-43.13
-38.02
-30.01
-20.12
-9.53
0.64
9.62
16.92
22.34
25.85
27.57
27.74
26.80
25.43
24.29
24.01
24.80
26.49
28.49
30.10
30.69
30.02
28.25
25.81
23.22
20.82
18.73
16.83
14.94
12.92
10.72
8.35
5.88
3.33
0.73
-1.99
-4.87
-8.03
-11.64
-15.80
-20.55
-25.64
-30.45
-34.13
-35.78
-34.76
-31.00
-24.99
-17.65
-9.96
-2.71
3.68
9.08
13.58
17.31
20.39
22.93
24.98
26.56
27.59
27.98
27.62
26.54
24.90
22.97
21.07
19.54
18.63
18.46
18.91
19.52
19.68
18.66
16.07
11.97
6.87
1.57
-3.21
-7.07
-10.01
-12.31
-14.42
-16.83
-20.08
-24.57
-30.42
-37.17
-43.70
-48.47
-49.99
-47.44
-41.01
-31.86
-21.50
-11.38
-2.36
5.25
11.52
16.49
20.17
22.43
23.28
22.96
21.92
20.75
19.99
20.05
20.98
22.52
24.17
25.30
25.43
24.44
22.54
20.26
18.07
16.21
14.57
12.75
10.36
7.23
3.51
-0.43
-4.20
-7.59
-10.63
-13.60
-16.85
-20.68
-25.22
-30.35
-35.71
-40.64
-44.38
-46.26
-45.85
-43.21
-38.79
-33.21
-27.10
-20.87
-14.66
-8.55
-2.61
2.94
7.86
11.88
14.90
16.84
17.75
17.71
16.88
15.52
13.95
12.49
11.40
10.85
10.85
11.30
11.99
12.64
12.98
12.71
11.65
9.73
7.01
3.67
-0.01
-3.76
-7.31
-10.40
-12.84
-14.61
-15.87
-17.05
-18.72
-21.45
-25.53
-30.74
-36.35
-41.18
-44.05
-44.14
-41.24
-35.70
-28.28
-19.78
-10.93
-2.28
5.67
12.45
17.71
21.31
23.40
24.42
24.93
25.39
26.07
26.95
27.92
28.76
29.29
29.41
29.06
28.27
27.10
25.65
24.03
22.34
20.74
19.41
18.49
18.01
17.70
17.12
15.70
13.10
9.26
4.57
-0.38
-4.99
-8.82
-11.75
-13.79
-15.18
-16.21
-17.26
-18.70
-20.76
-23.34
-25.94
-27.69
-27.70
-25.29
-20.31
-13.10
-4.32
5.18
14.68
23.47
30.93
36.54
40.03
41.49
41.43
40.64
39.85
39.52
39.71
40.19
40.59
40.67
40.25
39.28
37.75
35.76
33.49
31.21
29.23
27.64
26.41
25.28
24.02
22.54
20.95
19.42
18.07
16.77
15.28
13.30
10.63
7.30
3.44
-0.73
-5.01
-9.12
-12.80
-15.63
-17.25
-17.38
-16.00
-13.35
-9.88
-6.11
-2.52
0.51
2.76
4.06
4.33
3.55
1.82
-0.65
-3.52
-6.47
-9.21
-11.58
-13.50
-14.91
-15.73
-15.90
-15.51
-14.77
-14.14
-14.02
-14.76
-16.31
-18.33
-20.20
-21.38
-21.57
-20.72
-19.11
-17.09
-15.10
-13.45
-12.53
-12.64
-14.03
-16.67
-20.14
-23.55
-25.79
-25.86
-23.26
-18.22
-11.57
-4.46
2.26
8.09
13.03
17.18
20.45
22.35
22.29
19.81
15.07
8.88
2.53
-2.68
-5.87
-6.68
-5.48
-2.84
0.47
3.84
6.74
8.76
9.51
8.67
6.12
2.05
-3.05
-8.37
-12.97
-16.18
-17.77
-18.11
-18.06
-18.72
-20.93
-24.98
-30.43
-36.12
-40.59
-42.47
-40.93
-35.82
-27.77
-17.93
-7.64
1.88
9.72
15.50
19.25
21.31
22.20
22.43
22.32
22.10
21.89
21.71
21.57
21.45
21.26
20.82
19.95
18.50
16.45
13.95
11.25
8.61
6.17
3.96
1.82
-0.44
-3.05
-6.12
-9.68
-13.66
-17.94
-22.48
-27.28
-32.32
-37.45
-42.19
-45.76
-47.30
-46.19
-42.32
-36.22
-28.86
-21.27
-14.26
-8.21
-3.14
1.06
4.49
7.23
9.32
10.89
12.15
13.24
14.21
14.93
15.21
14.86
13.87
12.41
10.76
9.26
8.14
7.48
7.15
6.90
6.36
5.25
3.34
0.64
-2.72
-6.50
-10.44
-14.36
-18.22
-22.06
-25.90
-29.59
-32.79
-35.03
-35.81
-34.77
-31.85
-27.25
-21.40
-14.77
-7.82
-0.86
5.81
11.97
17.32
21.56
24.36
25.61
25.38
24.03
22.01
19.77
17.62
15.69
14.02
12.65
11.66
11.06
10.73
10.38
9.63
8.20
6.05
3.39
0.52
-2.24
-4.78
-7.09
-9.29
-11.38
-13.44
-15.53
-17.83
-20.49
-23.57
-26.73
-29.39
-30.74
-30.12
-27.21
-22.16
-15.50
-7.93
-0.19
7.14
13.59
18.83
22.63
24.89
25.63
24.98
23.23
20.80
18.20
15.95
14.59
14.31
15.01
16.30
17.63
18.47
18.57
17.88
16.52
14.59
12.09
8.98
5.38
1.74
-1.36
-3.31
-3.97
-3.83
-3.92
-5.38
-9.03
-14.87
-22.07
-29.16
-34.36
-36.08
-33.35
-26.32
-16.44
-6.33
1.04
3.18
-0.95
-10.74
-24.34
-39.46
-54.11
-66.87
-76.91
-83.60
-86.58
-85.75
-81.56
-75.02
-67.55
-60.50
-54.85
-50.90
-48.32
-46.31
-43.85
-40.08
-34.66
-27.92
-20.78
-14.33
-9.38
-6.07
-3.92
-2.22
-0.33
1.92
4.35
6.66
8.68
10.64
12.98
16.30
20.94
26.90
33.79
40.97
47.79
53.73
58.58
62.41
65.49
68.15
70.70
73.19
75.52
77.40
78.53
78.68
77.73
75.59
72.20
67.59
61.87
55.41
48.83
42.83
37.87
34.06
31.00
28.11
24.84
21.03
16.81
12.44
8.13
3.86
-0.53
-5.23
-10.33
-15.91
-21.95
-28.40
-35.00
-41.18
-45.99
-48.36
-47.52
-43.27
-36.16
-27.27
-17.79
-8.66
-0.48
6.49
12.07
16.09
18.36
18.89
17.95
