1630938151.00
64.000000
-0.00
-0.00
-0.00
-0.00
-0.00
-0.00
-0.00
-0.00
-0.00
-0.00
0.00
0.01
0.01
-0.00
-0.03
-0.05
-0.05
0.00
0.13
0.36
0.66
1.01
1.37
1.72
2.06
2.40
2.79
3.24
3.80
4.42
5.06
5.66
6.20
6.68
7.15
7.68
8.31
9.14
10.09
11.04
11.88
12.56
13.14
13.76
14.65
15.96
17.91
20.32
22.90
25.38
27.58
29.57
31.68
34.32
37.81
42.54
48.15
54.10
59.83
64.97
69.58
74.14
79.34
85.71
93.76
103.00
112.62
121.73
129.77
136.75
143.30
150.75
157.77
166.64
177.95
191.79
206.97
220.57
228.25
225.36
208.53
176.87
132.76
80.05
23.07
-34.94
-92.44
-149.16
-205.23
-260.37
-313.74
-363.87
-409.83
-450.91
-486.50
-515.74
-537.23
-549.22
-549.96
-538.36
-514.19
-478.64
-433.83
-382.38
-326.92
-269.70
-212.45
-156.43
-102.67
-52.04
-5.51
36.04
71.96
101.96
126.20
145.17
159.58
170.15
177.49
182.01
183.97
183.63
181.24
177.15
171.77
165.50
158.70
151.60
144.36
137.03
129.67
122.31
115.03
107.90
100.99
94.36
88.04
82.06
76.44
71.17
66.28
61.78
57.67
53.97
50.67
47.77
45.25
43.12
41.36
39.97
38.93
38.26
37.95
37.99
38.38
39.08
40.07
41.27
42.62
43.97
45.21
46.16
46.66
46.54
45.68
43.99
41.42
38.04
33.86
29.05
23.78
18.23
12.58
6.95
1.40
-4.08
-9.52
-15.02
-20.69
-26.64
-32.91
-39.52
-46.37
-53.26
-59.87
-65.89
-70.90
-74.50
-76.36
-76.25
-74.00
-69.60
-63.14
-54.86
-45.10
-34.31
-22.99
-11.73
-1.09
8.39
16.34
22.51
26.79
29.23
29.99
29.39
27.74
25.26
22.31
19.29
16.66
14.92
14.57
16.04
19.62
25.23
32.50
40.96
50.07
59.35
68.35
76.61
83.72
89.29
92.79
93.39
90.53
83.97
73.83
60.46
44.22
25.21
4.82
-16.27
-38.33
-61.63
-86.25
-111.93
-138.03
-163.77
-188.36
-211.11
-231.58
-250.22
-267.24
-282.34
-294.65
-302.80
-305.33
-300.88
-288.57
-262.32
-219.21
-159.51
-87.14
-8.76
68.23
137.52
195.24
239.87
271.83
291.80
301.01
300.98
293.36
279.90
262.15
242.49
222.09
202.08
182.98
165.08
148.38
132.50
116.92
100.85
83.96
66.42
49.01
32.20
16.10
0.05
-17.49
-36.35
-57.59
-82.73
-113.38
-150.02
-191.23
-232.61
-267.08
-286.72
-285.45
-261.97
-220.18
-168.06
-114.58
-66.89
-28.42
0.89
22.97
39.85
52.27
60.00
62.59
60.36
54.73
48.05
43.02
41.87
45.94
55.23
68.62
84.11
99.05
110.47
115.53
112.13
99.32
78.51
53.51
29.80
12.68
5.26
6.90
13.23
17.57
12.89
-4.85
-35.31
-74.08
-114.55
-150.56
-178.20
-196.49
-206.51
-210.66
-210.23
-205.03
-194.01
-176.34
-152.10
-122.13
-87.38
-44.57
6.63
63.50
119.91
168.39
203.26
222.63
228.56
225.56
219.86
214.33
210.12
207.09
204.42
201.05
195.87
188.05
177.12
162.78
144.91
124.15
101.39
77.53
53.43
29.96
8.18
-10.55
-24.71
-33.41
-36.23
-33.52
-26.54
-17.17
-7.61
0.22
4.97
6.07
3.40
-2.60
-11.03
-20.65
-29.98
-37.56
-42.29
-43.76
-42.29
-38.93
-35.01
-31.72
-29.87
-29.80
-31.38
-34.20
-37.74
-41.45
-44.91
-47.93
-50.59
-53.27
-56.57
-61.14
-67.40
-75.23
-83.72
-91.08
-94.97
-93.11
-84.07
-67.85
-46.04
-21.43
2.79
23.91
40.24
51.18
56.92
57.98
55.02
48.78
40.25
30.78
21.91
15.00
10.72
8.85
8.37
7.87
6.18
2.77
-2.16
-7.83
-13.36
-18.15
-22.11
-25.66
-29.57
-34.67
-41.61
-50.61
-61.23
-72.25
-81.74
-87.41
-87.14
-79.72
-65.25
-45.24
-22.23
0.90
21.64
38.23
49.75
55.99
57.14
53.72
46.67
37.34
27.53
19.09
13.44
11.06
11.30
12.67
13.42
12.27
8.84
3.66
-2.23
-7.91
-12.95
-17.57
-22.41
-28.28
-35.88
-45.57
-57.14
-69.64
-81.16
-89.16
-90.98
-84.82
-70.41
-49.31
-24.48
0.68
23.31
41.62
54.89
63.06
66.29
64.86
59.28
50.63
40.58
31.05
23.65
19.13
17.22
16.77
16.34
14.77
11.55
6.94
1.69
-3.42
-7.89
-11.80
-15.62
-20.08
-25.90
-33.62
-43.43
-55.05
-67.40
-78.54
-85.76
-86.29
-78.23
-61.40
-37.75
-10.73
15.71
38.47
55.97
68.11
75.61
79.24
79.34
76.00
69.52
60.74
51.11
42.27
35.50
31.20
28.86
27.30
25.22
21.67
16.35
9.59
2.14
-5.23
-12.00
-18.02
-23.58
-29.14
-35.23
-42.38
-51.01
-61.29
-72.89
-84.61
-94.24
-98.88
-95.72
-83.19
-61.71
-33.87
-3.66
24.79
48.42
65.75
76.74
82.08
82.61
79.01
72.02
62.67
52.37
42.64
34.63
28.85
25.11
22.72
20.92
19.12
16.94
14.13
10.51
5.92
0.33
-6.08
-12.88
-19.57
-25.74
-31.25
-36.36
-41.68
-48.09
-56.42
-67.03
-79.42
-91.86
-101.54
-105.18
-100.12
-85.37
-62.19
-33.85
-4.60
21.68
42.53
57.14
66.02
70.13
70.29
67.00
60.72
52.32
43.19
34.98
29.11
26.17
25.71
26.42
26.72
25.30
21.61
15.89
8.92
1.63
-5.35
-11.80
-17.95
-24.31
-31.47
-40.04
-50.40
-62.50
-75.61
-88.13
-97.66
-101.53
-97.55
-84.80
-64.11
-37.94
-9.72
17.10
39.82
56.82
67.48
71.83
70.34
63.83
53.58
41.43
29.53
19.81
13.47
10.47
9.63
9.13
7.25
3.06
-3.31
-10.91
-18.45
-25.02
-30.47
-35.45
-41.17
-48.92
-59.60
-73.33
-89.24
-105.32
-118.62
-125.80
-123.96
-111.61
-89.38
-59.97
-27.41
4.14
31.66
53.78
70.59
82.90
91.53
96.96
99.59
100.15
99.86
100.20
102.23
106.07
110.67
114.22
114.95
111.83
104.95
95.38
84.63
73.94
63.88
54.28
44.45
33.66
21.47
7.89
-6.58
-21.02
-34.24
-44.92
-51.85
-54.29
-52.13
-46.09
-37.42
-27.60
-17.89
-9.29
-2.48
2.01
3.64
2.11
-2.44
-9.11
-16.42
-22.57
-26.13
-26.45
-23.81
-19.30
-14.28
-9.95
-6.97
-5.47
-5.14
-5.60
-6.61
-8.32
-11.23
-16.22
-24.36
-36.55
-53.16
-73.38
-94.96
-114.30
-127.31
-130.60
-122.68
-104.65
-79.85
-52.67
-27.06
-5.41
11.70
24.88
34.89
41.84
45.12
43.91
37.85
27.54
14.54
1.05
-10.31
-16.67
-15.19
-3.66
18.57
49.62
84.99
118.47
144.13
158.22
160.27
152.70
139.28
123.39
106.95
90.45
73.69
56.59
39.48
22.93
7.33
-7.17
-20.43
-31.99
-40.90
-46.01
-46.49
-42.30
-34.28
-23.89
-12.86
-2.74
5.29
10.52
12.85
12.81
11.45
10.09
9.81
11.01
13.25
15.50
16.72
16.37
14.61
12.06
9.31
6.55
3.56
0.02
-4.12
-8.40
-12.17
-14.93
-16.74
-18.23
-20.35
-23.91
-29.24
-36.08
-43.72
-51.12
-57.07
-60.24
-59.39
-53.59
-42.66
-27.36
-9.36
9.02
25.50
38.36
46.82
51.07
52.00
50.72
48.24
45.17
41.79
38.21
34.52
30.95
27.77
25.12
22.93
20.79
18.23
14.75
10.18
4.67
-1.42
-7.57
-13.45
-18.90
-24.01
-28.94
-33.89
-39.02
-44.47
-50.43
-57.01
-64.10
-71.06
-76.57
-78.73
-75.62
-66.00
-49.88
-28.76
-5.18
17.89
37.82
52.76
61.77
64.77
62.34
55.61
45.95
34.91
23.70
13.12
3.46
-5.34
-13.50
-21.18
-28.53
-35.74
-42.86
-49.74
-55.84
-60.35
-62.60
-62.55
-61.06
-59.78
-60.48
-64.34
-71.45
-80.78
-90.52
-98.63
-103.27
-103.14
-97.69
-87.29
-73.21
-57.53
-42.57
-30.29
-21.78
-16.96
-14.87
-14.12
-13.40
-11.83
-9.03
-5.03
-0.13
5.24
10.57
15.32
18.92
20.78
20.53
18.16
14.37
10.50
8.14
8.52
11.85
17.03
21.99
24.53
23.41
18.90
12.88
8.07
6.99
10.92
19.55
31.25
43.80
55.26
64.48
71.25
76.16
80.37
85.42
92.75
103.00
115.27
126.84
133.83
132.72
122.05
103.51
81.38
60.91
46.20
38.91
38.05
41.16
45.72
50.00
53.24
55.11
55.05
51.88
43.69
28.43
4.70
-27.10
-64.15
-101.37
-132.81
-153.60
-161.59
-157.79
-145.30
-127.54
-106.86
-84.55
-61.98
-41.87
-28.43
-25.95
-36.48
-58.28
-86.04
-113.11
-134.51
-148.91
-158.59
-167.56
-178.98
-193.53
-209.40
-223.58
-233.42
-237.65
-236.35
-230.48
-221.32
-210.27
-198.91
-188.90
-181.66
-177.97
-177.69
-179.81
-182.73
-184.45
-182.68
-175.03
-159.39
-134.69
-101.55
-62.39
-20.56
20.79
59.68
95.25
127.06
154.14
174.90
188.05
193.78
194.55
194.31
196.75
203.35
212.42
219.78
220.68
212.04
193.72
168.45
140.73
115.46
96.59
86.59
86.26
94.70
109.62
127.83
145.77
160.21
168.86
170.82
166.74
158.80
150.32
145.11
146.66
157.05
176.09
201.13
227.71
250.93
267.11
274.69
274.46
268.79
260.39
251.05
241.25
230.15
216.55
199.61
179.31
156.65
133.49
111.95
93.55
78.86
66.69
54.50
38.98
16.94
-13.42
-51.40
-93.78
-135.99
-173.10
-202.08
-222.66
-235.09
-240.93
-242.83
-243.72
-245.49
-248.61
-251.28
-251.34
-247.08
-238.05
-225.54
-212.37
-201.78
-196.32
-199.27
-208.80
-220.96
-230.75
-233.33
-225.36
-205.45
-174.09
-130.49
-78.72
-24.00
28.18
73.45
109.16
134.23
149.13
155.48
155.63
151.53
145.35
138.45
131.38
124.15
116.50
108.32
99.80
91.45
83.45
76.34
70.32
65.21
60.68
56.30
51.89
47.52
43.48
39.89
36.92
34.56
32.61
30.77
28.84
26.95
25.43
24.68
24.84
25.74
26.94
27.85
28.05
27.47
26.59
26.16
26.96
29.22
32.33
35.21
36.51
35.15
30.76
23.83
15.39
6.25
-2.99
-13.19
-25.36
-40.49
-59.17
-81.51
-107.32
-135.83
-165.13
-191.00
-209.08
-215.05
-207.08
-187.13
-160.83
-135.37
-116.57
-106.48
-103.22
-102.71
-100.85
-95.50
-86.59
-74.75
-60.52
-43.66
-23.50
0.03
25.71
51.30
74.40
92.23
104.36
111.52
115.15
116.87
117.73
118.01
117.29
115.01
111.34
106.11
99.91
93.68
88.35
84.39
81.74
79.78
77.74
74.91
70.93
65.87
60.08
54.14
48.56
44.02
40.14
36.51
32.64
27.88
21.99
15.09
7.87
1.26
-3.87
-7.13
-8.73
-9.46
-10.56
-13.00
-16.98
-21.73
-25.82
-27.84
-27.10
-24.01
-19.95
-17.02
-16.67
-19.05
-22.71
-25.29
-24.34
-18.04
-5.57
12.67
34.39
55.78
71.96
78.28
71.90
53.18
26.29
-3.13
-27.07
-41.25
-46.00
-45.73
-45.73
-49.52
-57.06
-64.51
-65.80
-55.29
-31.01
4.41
44.58
81.82
109.83
125.70
129.93
125.13
114.55
100.46
84.53
68.50
54.60
45.12
41.45
43.23
48.43
54.36
58.60
59.54
56.65
49.83
38.63
23.47
4.02
-20.08
-48.57
-80.44
-113.84
-146.49
-176.40
-202.36
-224.01
-241.65
-255.42
-264.93
-269.52
-268.89
-263.65
-255.55
-247.00
-240.01
-235.54
-232.91
-230.10
-224.68
-214.59
-198.61
-176.28
-147.49
-112.37
-71.46
-26.05
21.51
68.34
112.14
152.10
188.96
223.84
256.49
284.18
302.25
306.18
294.08
268.13
233.86
197.86
164.97
136.82
112.32
89.56
67.73
47.75
31.41
19.78
12.12
5.94
-1.82
-13.37
-29.04
-47.34
-65.59
-81.14
-92.11
-97.67
-97.78
-92.86
-83.47
-70.35
-54.42
-36.80
-18.77
-1.62
13.42
25.31
33.28
37.06
36.98
34.01
29.61
25.32
22.33
21.15
21.49
22.48
23.07
22.44
20.25
16.70
12.29
7.56
2.88
-1.68
-6.34
-11.52
-17.68
-25.24
-34.37
-44.83
-55.71
-65.43
-71.98
-73.42
-68.58
-57.46
-41.29
-22.20
-2.50
15.90
31.79
44.61
54.12
60.15
62.58
61.49
57.43
51.42
44.85
39.07
34.99
32.80
32.02
31.71
30.85
28.79
25.32
20.75
15.58
10.24
4.95
-0.37
-5.88
-11.73
-18.00
-24.80
-32.24
-40.25
-48.22
-54.77
-57.85
-55.32
-45.81
-29.49
-8.19
15.12
37.26
55.80
69.50
78.18
82.30
82.51
79.41
73.65
66.01
57.52
49.24
42.13
36.76
33.23
31.11
29.68
28.09
25.58
21.77
16.69
10.75
4.51
-1.59
-7.35
-12.88
-18.43
-24.28
-30.70
-37.99
-46.42
-56.03
-66.28
-75.84
-82.65
-84.48
-79.74
-68.18
-51.11
-30.99
-10.60
7.74
22.74
33.99
41.64
45.97
47.21
45.64
41.80
36.69
31.57
27.60
25.47
25.06
25.64
26.10
25.52
23.39
19.79
15.21
10.24
5.32
0.63
-3.89
-8.55
-13.67
-19.67
-26.87
-35.42
-44.99
-54.69
-62.94
-67.85
-67.70
-61.53
-49.58
-33.22
-14.56
4.16
21.10
35.00
45.17
51.26
53.18
51.16
45.90
38.64
30.91
24.23
19.58
17.20
16.51
16.44
15.87
14.02
10.68
6.19
1.18
-3.74
-8.27
-12.48
-16.75
-21.65
-27.67
-35.13
-43.94
-53.40
-62.17
-68.37
-70.03
-65.67
-54.91
-38.69
-19.09
1.28
20.06
35.62
47.22
54.78
58.51
58.69
55.70
50.16
43.15
36.00
30.06
26.22
24.61
24.50
24.67
23.83
21.15
16.51
10.46
3.88
-2.39
-7.94
-12.86
-17.65
-22.95
-29.36
-37.29
-46.80
-57.44
-68.10
-77.01
-82.04
-81.22
-73.45
-59.03
-39.63
-17.87
3.50
22.27
37.17
47.83
54.41
57.32
57.02
54.03
49.08
43.12
37.20
32.24
28.80
26.92
26.16
25.79
25.02
23.28
20.27
16.04
10.90
5.28
-0.38
-5.79
-10.86
-15.75
-20.85
-26.66
-33.66
-42.17
-52.04
-62.44
-71.79
-77.91
-78.62
-72.45
-59.27
-40.52
-18.79
2.93
22.11
37.27
48.01
54.66
57.87
58.22
56.26
52.53
47.73
42.64
38.03
34.39
31.90
30.41
29.55
28.85
27.88
26.30
23.90
20.61
16.51
11.82
6.82
1.79
-3.05
-7.66
-12.22
-17.03
-22.53
-29.10
-36.96
-45.94
-55.25
-63.48
-68.71
-68.95
-62.87
-50.30
-32.59
-12.22
7.85
25.06
37.92
46.12
50.25
51.23
49.91
46.89
42.64
37.71
32.76
28.54
25.58
24.07
23.72
23.93
23.91
23.03
20.94
17.65
13.44
8.76
3.98
-0.67
-5.13
-9.39
-13.48
-17.46
-21.48
-25.85
-31.09
-37.56
-45.19
-53.14
-59.73
-62.85
-60.66
-52.38
-38.70
-21.61
-3.74
12.50
25.54
34.88
40.70
43.44
43.46
41.00
36.37
30.24
23.61
17.60
13.04
10.26
8.92
8.29
7.48
5.81
3.02
-0.80
-5.29
-10.10
-15.07
-20.21
-25.67
-31.64
-38.25
-45.64
-53.92
-63.11
-72.87
-82.35
-90.10
-94.40
-93.76
-87.57
-76.41
-61.99
-46.63
-32.64
-21.82
-15.28
-13.39
-15.87
-21.74
-29.15
-35.52
-37.85
-33.66
-21.80
-3.11
19.68
42.82
62.77
77.23
85.56
88.58
87.81
84.94
81.44
78.59
77.37
78.29
81.06
84.46
86.66
86.00
81.97
75.52
68.80
64.17
63.24
66.37
72.73
81.08
90.31
99.84
109.40
118.66
126.87
132.76
134.81
131.64
122.50
107.50
87.68
64.71
40.64
17.28
-4.12
-23.06
-39.76
-54.81
-68.74
-81.75
-93.67
-104.08
-112.62
-119.20
-124.05
-127.56
-130.14
-132.11
-133.70
-135.02
-136.05
-136.44
-135.37
-131.70
-124.21
-112.15
-95.66
-75.85
-54.55
-33.70
-14.89
0.92
13.32
22.24
27.71
29.90
29.22
26.42
22.54
18.68
15.74
14.14
13.74
14.01
14.26
13.90
12.68
10.68
8.15
5.43
2.69
-0.02
-2.84
-5.96
-9.60
-13.96
-19.26
-25.68
-33.16
-41.20
-48.64
-53.79
-54.87
-50.68
-41.09
-27.22
-11.07
5.15
19.67
31.46
40.20
45.92
48.68
48.49
45.49
40.21
33.66
27.15
21.90
18.58
17.10
16.76
16.54
15.59
13.47
10.28
6.45
2.54
-1.09
-4.31
-7.35
-10.57
-14.46
-19.43
-25.68
-33.06
-40.93
-48.13
-53.17
-54.58
-51.39
-43.54
-31.90
-18.04
-3.75
9.39
20.34
28.58
33.86
36.07
35.13
31.20
24.80
16.97
9.06
2.46
-1.93
-4.04
-4.69
-5.40
-7.88
-13.52
-22.97
-36.01
-51.61
-68.24
-84.20
-97.88
-108.08
-114.17
-116.06
-113.99
-108.16
-98.38
-83.97
-64.08
-38.35
-7.49
26.33
59.82
89.27
111.61
125.11
129.82
127.36
120.43
112.01
104.52
99.16
95.58
92.15
86.64
77.30
63.61
46.65
28.70
12.53
0.49
-5.99
-6.57
-1.78
7.23
18.86
31.28
42.69
51.63
57.51
60.76
62.76
65.25
69.70
76.73
85.83
95.69
104.67
111.48
115.52
117.03
116.85
116.17
116.14
117.71
121.45
127.54
135.65
144.88
153.76
160.38
162.69
158.94
148.12
130.18
105.85
76.44
43.35
7.94
-28.45
-64.38
-98.24
-128.30
-153.08
-171.64
-183.76
-189.88
-190.92
-187.99
-182.43
-175.84
-170.03
-166.82
-167.59
-172.81
-181.69
-192.12
-201.06
-205.21
-201.83
-189.48
-168.46
-140.73
-109.38
-77.82
-49.02
-25.11
-7.22
4.35
9.86
10.02
5.91
-1.11
-9.53
-18.02
-25.79
-32.71
-39.25
-46.09
-53.54
-61.18
-67.78
-71.60
-71.06
-65.30
-54.56
-40.11
-23.82
-7.59
7.15
19.50
29.09
35.73
39.43
40.34
38.84
35.66
31.71
27.92
24.95
23.04
22.00
21.27
20.20
18.28
15.26
11.28
6.77
2.24
-1.92
-5.68
-9.34
-13.50
-18.86
-25.97
-35.01
-45.57
-56.48
-65.88
-71.61
-71.72
-65.23
-52.50
-35.28
-16.09
2.54
18.75
31.67
41.26
47.88
51.95
53.81
53.75
52.22
49.83
47.27
45.09
43.56
42.58
41.78
40.67
38.84
36.05
32.27
27.68
22.58
17.26
11.92
6.69
1.61
-3.37
-8.34
-13.50
-19.15
-25.63
-33.14
-41.43
-49.58
-56.07
-59.02
-56.88
-48.98
-35.89
-19.37
-1.77
14.61
28.10
37.90
43.96
46.65
46.48
43.99
39.83
34.80
29.85
25.87
23.40
22.47
22.56
22.82
22.45
20.93
18.22
14.61
10.61
6.65
2.96
-0.45
-3.78
-7.36
-11.59
-16.88
-23.45
-31.16
-39.34
-46.71
-51.69
-52.79
-49.07
-40.53
-28.13
-13.52
1.40
14.92
25.82
33.43
37.59
38.55
36.81
33.09
28.21
23.05
18.45
15.11
13.49
13.65
15.19
17.28
18.99
19.62
18.97
17.39
15.47
13.72
12.18
10.41
7.69
3.42
-2.62
-10.09
-18.09
-25.32
-30.27
-31.56
-28.22
-20.05
-7.83
6.84
21.93
35.50
46.21
53.44
57.18
57.78
55.72
51.47
45.72
39.30
33.19
28.27
24.98
23.18
22.19
21.13
19.28
16.37
12.58
8.37
4.21
0.37
-3.15
-6.60
-10.39
-15.03
-20.89
-28.08
-36.12
-43.86
-49.61
-51.59
-48.47
-39.97
-26.96
-11.23
5.07
20.00
32.26
41.18
46.66
48.82
47.98
44.63
39.42
33.22
27.02
21.67
17.69
15.14
13.61
12.35
10.60
7.80
3.75
-1.32
-6.92
-12.53
-17.77
-22.50
-26.85
-31.13
-35.79
-41.30
-48.01
-55.92
-64.42
-72.15
-77.12
-77.11
-70.36
-56.14
-35.12
-9.24
18.80
46.10
70.17
89.21
102.27
109.19
110.48
107.16
100.59
92.22
83.35
74.87
67.18
60.25
53.71
47.14
40.09
32.41
24.21
15.85
7.76
0.28
-6.45
-12.48
-18.04
-23.65
-29.73
-36.43
-43.64
-51.13
-58.61
-65.58
-71.25
-74.51
-74.61
-70.97
-63.46
-52.74
-40.48
-28.94
-20.14
-15.34
-14.61
-17.93
-24.69
-33.81
-43.97
-53.95
-62.81
-69.59
-73.67
-74.83
-74.58
-74.69
-76.38
-79.90
-84.35
-88.26
-89.83
-87.88
-76.11
-53.23
-23.37
6.44
30.78
48.08
58.04
62.38
61.85
57.14
48.64
38.16
29.17
25.30
30.01
43.76
63.52
84.01
100.60
110.23
112.58
110.89
106.74
100.99
94.00
86.38
79.11
73.64
70.07
68.65
69.12
70.42
71.39
70.76
67.70
62.13
54.85
46.85
39.22
32.57
26.63
20.67
13.47
3.87
-8.78
-24.12
-40.83
-56.72
-69.40
-76.99
-78.57
-74.43
-65.92
-54.82
-42.75
-30.98
-20.47
-12.25
-7.54
-7.34
-12.03
-20.88
-32.06
-43.04
-51.51
-56.13
-56.87
-54.87
-51.67
-48.54
-46.18
-44.65
-43.74
-43.33
-43.51
-44.63
-47.15
-51.42
-57.54
-65.23
-73.72
-81.67
-87.26
-88.61
-84.25
-73.66
-57.54
-37.68
-16.48
3.71
21.02
34.29
43.03
47.31
47.57
44.68
39.91
34.82
30.94
29.36
30.38
33.42
37.25
40.44
41.93
41.31
38.83
35.07
30.69
26.09
21.28
15.95
9.40
0.84
-10.32
-24.11
-39.66
-55.14
-68.17
-76.45
-78.46
-73.97
-63.98
-50.38
-35.34
-20.88
-8.57
0.41
5.27
5.60
1.53
-6.22
-16.27
-26.86
-36.29
-43.40
-47.86
-50.23
-51.60
-53.15
-55.64
-59.16
-63.28
-67.28
-70.59
-73.04
-74.95
-76.97
-79.83
-84.07
-89.63
-95.75
-100.84
-102.86
-99.82
-90.41
-74.53
-53.31
-28.71
-2.84
22.69
46.99
69.71
90.58
109.12
124.54
136.14
143.70
147.81
149.75
150.98
152.59
154.90
157.33
158.72
157.82
153.86
146.77
137.20
126.25
115.00
104.21
94.15
84.55
74.71
63.73
50.82
35.74
19.25
3.08
-10.46
-19.09
-21.50
-17.70
-9.15
1.86
12.98
22.59
29.96
34.90
37.43
37.36
34.49
28.74
20.54
10.91
1.47
-6.30
-11.57
-14.47
-15.94
-17.33
-19.93
-24.69
-31.97
-40.92
-50.29
-58.88
-65.69
-69.99
-71.46
-70.44
-68.11
-66.27
-65.57
-66.39
-68.87
-72.57
-76.08
-77.08
-73.11
-62.65
-45.72
-21.71
8.40
41.91
75.21
105.18
130.20
150.02
165.11
176.07
186.21
197.83
211.14
224.41
235.53
243.30
247.75
249.42
233.72
194.44
135.95
71.41
13.76
-30.60
-61.88
-84.00
-100.58
-117.26
-134.42
-150.56
-164.05
-174.25
-181.27
-185.58
-186.16
-182.60
-174.94
-161.05
-139.80
-112.40
-82.63
-55.47
-35.12
-23.61
-20.59
-23.78
-28.50
-31.15
-30.49
-27.59
-24.27
-21.69
-19.87
-18.33
-16.60
-13.82
-9.71
-4.43
1.52
7.69
13.52
18.19
20.48
19.26
14.57
7.74
1.33
-1.68
1.17
10.78
26.15
44.60
62.81
77.91
87.98
92.03
89.73
81.20
67.16
49.25
29.99
12.13
-2.30
-12.77
-20.27
-26.53
-32.99
-40.21
-47.82
-55.11
-61.52
-66.92
-71.35
-74.80
-77.12
-78.28
-78.67
-79.13
-80.68
-83.86
-88.30
-92.54
-94.49
-92.10
-84.10
-70.35
-51.81
-30.17
-7.32
15.02
35.55
53.29
67.44
77.42
82.88
84.00
81.54
76.74
70.99
65.43
60.65
56.66
53.11
49.41
45.14
40.02
33.99
27.19
19.91
12.60
5.81
-0.02
-4.79
-8.98
-13.66
-20.09
-29.08
-40.32
-52.18
-61.92
-66.64
-64.26
-54.31
-38.01
-17.72
3.91
24.68
43.14
58.37
69.69
76.49
78.37
75.48
68.79
60.06
51.31
44.25
39.71
37.45
36.39
35.18
32.72
28.53
22.84
16.30
9.62
3.25
-2.81
-8.89
-15.52
-23.28
-32.54
-43.30
-55.05
-66.54
-75.89
-80.98
-79.99
-72.09
-57.69
-38.40
-16.53
5.54
25.87
43.10
56.41
65.34
69.69
69.63
65.81
59.33
51.67
44.29
38.28
34.10
31.53
29.83
28.07
25.54
21.90
17.24
11.91
6.30
0.66
-4.97
-10.73
-16.90
-23.79
-31.70
-40.78
-50.89
-61.36
-70.90
-77.74
-79.99
-76.25
-66.07
-50.20
-30.44
-9.15
11.31
29.10
43.01
52.50
57.46
58.19
55.28
49.70
42.74
35.78
30.04
26.18
24.14
23.25
22.46
20.88
18.08
14.20
9.76
5.33
1.21
-2.73
-6.94
-11.95
-18.16
-25.77
-34.66
-44.31
-53.75
-61.53
-65.90
-65.24
-58.60
-46.14
-29.22
-9.99
9.10
25.99
39.29
48.34
53.01
53.55
50.48
44.66
37.27
29.72
23.31
18.89
16.65
16.01
15.97
15.53
14.00
11.23
7.52
3.33
-0.99
-5.33
-9.92
-15.17
-21.49
-29.08
-37.71
-46.56
-54.25
-59.07
-59.45
-54.45
-44.11
-29.54
-12.61
4.64
20.43
33.48
43.03
48.73
50.46
48.44
43.35
36.30
28.73
22.04
17.17
14.34
13.05
12.34
11.22
9.03
5.65
1.37
-3.28
-7.88
-12.26
-16.58
-21.29
-26.90
-33.80
-42.02
-50.98
-59.46
-65.73
-67.98
-64.83
-55.84
-41.75
-24.26
-5.58
12.16
27.35
39.07
46.92
50.85
51.07
48.03
42.57
35.88
29.34
24.15
20.96
19.68
19.59
19.68
19.07
17.38
14.72
11.51
8.15
4.78
1.20
-3.00
-8.28
-15.01
-23.29
-32.91
-43.16
-52.82
-60.22
-63.62
-61.65
-53.91
-41.11
-25.00
-7.76
8.53
22.45
33.29
40.88
45.28
46.51
44.61
39.74
32.49
23.85
15.11
7.41
1.34
-3.24
-7.07
-11.11
-15.97
-21.61
-27.40
-32.43
-36.09
-38.30
-39.61
-40.83
-42.69
-45.70
-50.04
-55.64
-62.12
-68.71
-74.09
-76.54
-74.35
-66.50
-53.14
-35.73
-16.66
1.56
16.97
28.61
36.44
41.00
42.98
42.91
41.16
38.05
34.00
29.62
25.61
22.58
20.82
20.20
20.23
20.25
19.64
18.05
15.46
12.07
8.16
3.93
-0.61
-5.57
-11.13
-17.50
-24.84
-33.25
-42.59
-52.35
-61.48
-68.49
-71.71
-69.86
-62.46
-50.13
-34.41
-17.32
-0.77
13.79
25.49
33.92
38.93
40.58
39.16
35.34
30.09
24.57
19.79
16.35
14.30
13.24
12.50
11.48
9.84
7.58
4.97
2.32
-0.16
-2.49
-4.92
-7.83
-11.66
-16.72
-23.14
-30.71
-38.79
-46.33
-51.93
-54.21
-52.13
-45.40
-34.65
-21.27
-7.06
6.21
17.13
24.86
29.02
29.65
27.10
22.03
15.39
8.34
1.98
-2.88
-6.00
-7.73
-8.86
-10.26
-12.50
-15.68
-19.43
-23.18
-26.48
-29.25
-31.83
-34.80
-38.76
-44.04
-50.50
-57.47
-63.75
-67.84
-68.25
-63.95
-54.74
-41.39
-25.53
-9.14
5.88
18.15
26.94
32.05
33.68
32.30
28.60
23.48
17.97
13.00
9.20
6.74
5.33
4.41
3.39
1.86
-0.25
-2.79
-5.51
-8.24
-11.07
-14.32
-18.51
-24.06
-30.93
-38.50
-45.46
-50.11
-50.82
-46.53
-37.12
-23.49
-7.31
9.41
24.83
37.59
46.90
52.51
54.53
53.39
49.78
44.58
38.76
33.21
28.50
24.78
21.82
19.15
16.32
13.06
9.33
5.27
1.10
-3.09
-7.37
-12.09
-17.70
-24.64
-32.97
-42.15
-50.91
-57.46
-59.99
-57.27
-48.99
-35.98
-19.85
-2.58
14.00
28.45
39.81
47.55
51.50
51.85
49.15
44.34
38.55
32.85
28.00
24.27
21.45
19.02
16.42
13.27
9.53
5.37
1.07
-3.13
-7.24
-11.50
-16.33
-22.23
-29.51
-38.03
-47.00
-55.00
-60.16
-60.74
-55.62
-44.80
-29.39
-11.31
7.37
24.86
39.93
51.91
60.42
65.23
66.29
63.86
58.70
52.06
45.33
39.71
35.78
33.33
31.56
29.43
26.15
21.45
15.64
9.42
3.48
-1.81
-6.53
-11.17
-16.45
-22.96
-31.02
-40.42
-50.31
-59.30
-65.60
-67.48
-63.73
-54.12
-39.48
-21.55
-2.50
15.60
31.18
43.25
51.43
55.74
56.53
54.38
50.13
44.74
39.18
34.26
30.45
27.84
26.10
24.62
22.75
19.98
16.11
11.32
6.05
0.74
-4.32
-9.11
-13.87
-18.99
-24.86
-31.78
-39.77
-48.48
-57.03
-64.07
-68.02
-67.44
-61.55
-50.47
-35.25
-17.57
0.62
17.55
31.83
42.50
49.07
51.48
50.15
45.97
40.19
34.21
29.25
26.01
24.60
24.44
24.67
24.38
23.04
20.53
17.13
13.29
9.33
5.38
1.28
-3.30
-8.69
-15.19
-22.82
-31.23
-39.57
-46.48
-50.39
-49.89
-44.26
-33.77
-19.69
-3.93
11.46
24.75
34.82
41.19
43.86
43.19
39.78
34.43
28.11
21.83
16.48
12.60
10.27
9.08
8.36
7.38
5.67
3.08
-0.20
-3.87
-7.71
-11.80
-16.51
-22.31
-29.39
-37.34
-45.06
-50.90
-53.12
-50.45
-42.54
-30.10
-14.74
1.52
16.74
29.42
38.64
44.07
45.78
44.21
40.08
34.34
28.05
22.15
17.28
13.66
11.10
9.18
7.48
5.64
3.48
0.91
-2.19
-5.94
-10.54
-16.19
-23.02
-30.89
-39.20
-46.76
-51.97
-53.18
-49.20
-39.81
-25.95
-9.48
7.39
22.60
34.75
43.15
47.72
48.78
46.91
42.83
37.39
31.44
25.68
20.58
16.31
12.77
9.70
6.82
3.86
0.65
-2.95
-7.03
-11.71
-17.17
-23.64
-31.24
-39.76
-48.49
-56.09
-60.84
-61.08
-55.77
-44.92
-29.64
-11.84
6.31
22.87
36.51
46.55
52.78
55.37
54.71
51.41
46.29
40.28
34.27
28.90
24.47
20.87
17.71
14.49
10.84
6.61
1.94
-2.88
-7.62
-12.31
-17.32
-23.23
-30.50
-39.11
-48.25
-56.37
-61.53
-61.99
-56.80
-46.14
-31.23
-13.93
3.76
20.26
34.53
46.00
54.41
59.60
61.46
60.12
56.08
50.23
43.80
37.99
33.61
30.87
29.32
28.10
26.29
23.28
18.96
13.68
8.06
2.65
-2.30
-6.92
-11.64
-17.01
-23.51
-31.33
-40.27
-49.52
-57.79
-63.36
-64.50
-60.03
-49.68
-34.36
-15.85
3.66
22.16
38.16
50.82
59.76
64.90
66.40
64.69
60.64
55.41
50.26
46.14
43.45
41.98
41.08
40.05
38.37
35.89
32.77
29.36
25.96
22.67
19.37
15.76
11.50
6.33
0.26
-6.46
-13.37
-19.99
-25.94
-31.14
-35.82
-40.47
-45.73
-52.09
-59.65
-67.82
-75.34
-80.41
-81.15
-76.23
-65.36
-49.44
-30.35
-10.40
8.35
24.52
37.46
47.05
53.46
56.90
57.64
56.12
53.04
49.33
45.91
43.44
42.14
41.71
41.56
41.00
39.54
37.02
33.63
29.78
25.86
22.14
18.57
14.82
10.53
5.41
-0.50
-6.88
-13.23
-19.10
-24.23
-28.67
-32.69
-36.66
-40.98
-46.01
-51.99
-58.90
-66.27
-73.06
-77.72
-78.55
-74.21
-64.27
-49.42
-31.39
-12.36
5.54
20.76
32.44
40.41
44.90
46.36
45.40
42.77
39.30
35.79
32.93
30.99
29.93
29.32
28.68
27.57
25.78
23.35
20.43
17.20
13.74
10.02
5.95
1.50
-3.31
-8.34
-13.40
-18.37
-23.18
-27.86
-32.63
-37.78
-43.52
-49.81
-56.10
-61.30
-63.94
-62.59
-56.42
-45.58
-31.24
-15.32
0.21
13.75
24.43
31.98
36.45
37.96
36.69
32.99
27.58
21.54
16.05
12.04
9.94
9.51
10.05
10.67
10.62
9.46
7.13
3.89
0.12
-3.82
-7.72
-11.62
-15.75
-20.43
-25.91
-32.26
-39.23
-46.21
-52.27
-56.21
-56.85
-53.35
-45.50
-33.87
-19.72
-4.68
9.64
21.90
31.22
37.05
39.25
37.98
33.82
27.70
20.84
14.42
9.36
6.04
4.30
3.53
2.92
1.78
-0.31
-3.37
-7.12
-11.13
-15.05
-18.78
-22.51
-26.70
-31.88
-38.36
-46.07
-54.34
-61.92
-67.21
-68.64
-65.09
-56.34
-43.14
-27.06
-9.98
6.28
20.44
31.74
39.88
44.81
46.62
45.50
41.97
36.81
31.11
25.89
21.86
19.18
17.48
16.05
14.19
11.45
7.79
3.47
-1.08
-5.55
-9.88
-14.24
-19.04
-24.74
-31.73
-40.08
-49.37
-58.55
-66.05
-70.07
-69.12
-62.56
-50.76
-35.13
-17.53
0.17
16.55
30.73
42.19
50.58
55.61
57.14
55.42
51.20
45.63
39.99
35.26
31.91
29.74
28.13
26.31
23.67
19.93
15.20
9.82
4.25
-1.18
-6.36
-11.42
-16.74
-22.82
-30.11
-38.85
-48.79
-59.08
-68.26
-74.46
-75.86
-71.27
-60.54
-44.67
-25.62
-5.71
12.94
28.82
41.19
49.89
55.05
56.96
56.00
52.72
47.94
42.63
37.74
33.94
31.46
30.03
29.07
27.84
25.75
22.46
17.95
12.43
6.24
-0.29
-6.91
-13.47
-19.96
-26.51
-33.47
-41.31
-50.46
-61.00
-72.30
-82.89
-90.62
-93.28
-89.32
-78.50
-62.15
-42.69
-23.07
-5.92
6.83
14.30
16.56
14.69
10.67
7.07
6.45
10.57
19.73
32.64
46.89
59.88
69.73
75.68
77.95
77.23
74.19
69.32
63.10
56.18
49.50
43.97
40.11
37.86
36.56
35.20
32.88
29.10
23.90
17.75
11.29
5.05
-0.73
-6.11
-11.41
-17.05
-23.49
-31.03
-39.75
-49.28
-58.65
-66.30
-70.38
-69.20
-61.83
-48.56
-30.87
-11.08
8.29
25.20
38.33
47.19
51.88
52.82
50.59
45.96
39.89
33.56
28.15
24.57
23.09
23.29
24.09
24.32
23.06
20.05
15.67
10.71
5.88
1.47
-2.74
-7.32
-12.92
-19.98
-28.54
-38.15
-47.81
-56.09
-61.32
-61.95
-57.01
-46.51
-31.47
-13.73
4.53
21.27
34.92
44.49
49.54
50.11
46.81
40.68
33.16
25.78
19.73
15.58
13.22
11.95
10.92
9.40
7.07
3.98
0.42
-3.30
-7.05
-10.94
-15.31
-20.60
-27.21
-35.22
-44.19
-53.01
-60.00
-63.29
-61.33
-53.43
-40.05
-22.66
-3.37
15.64
32.56
46.11
55.61
60.79
61.76
59.02
53.42
46.20
38.69
32.11
27.18
24.01
22.07
20.44
18.21
14.82
10.29
5.08
-0.11
-4.76
-8.85
-12.85
-17.60
-23.95
-32.31
-42.42
-53.18
-62.81
-69.21
-70.53
-65.66
-54.64
-38.64
-19.73
-0.22
17.85
33.17
45.12
53.57
58.57
60.17
58.55
54.17
48.01
41.39
35.66
31.72
29.67
28.83
28.03
26.19
22.71
17.68
11.69
5.52
-0.26
-5.47
-10.35
-15.45
-21.36
-28.59
-37.34
-47.32
-57.65
-66.82
-72.93
-74.14
-69.27
-58.20
-42.01
-22.66
-2.47
16.55
32.95
46.00
55.40
61.12
63.29
62.21
58.53
53.23
47.47
42.37
38.63
36.41
35.31
34.58
33.44
31.32
27.99
23.61
18.53
13.17
7.84
2.63
-2.56
-7.99
-14.00
-20.96
-29.14
-38.56
-48.68
-58.30
-65.62
-68.65
-65.86
-56.71
-42.06
-23.86
-4.60
13.40
28.52
40.01
47.69
51.71
52.33
49.91
45.06
38.73
32.10
26.34
22.27
20.04
19.18
18.69
17.53
14.97
10.86
5.65
0.09
-5.13
-9.66
-13.62
-17.48
-21.77
-26.96
-33.25
-40.66
-48.90
-57.32
-64.72
-69.53
-70.08
-65.17
-54.56
-39.16
-20.81
-1.79
15.80
30.38
41.00
47.26
49.22
47.29
42.33
35.57
28.44
22.28
17.99
15.76
15.12
15.15
14.87
13.58
11.09
7.63
3.71
-0.24
-4.05
-7.84
-12.00
-16.98
-23.16
-30.61
-39.00
-47.46
-54.61
-58.86
-58.73
-53.39
-42.98
-28.64
-12.21
4.23
18.85
30.34
38.00
41.64
41.51
38.25
32.90
26.64
20.69
15.89
12.60
10.59
9.28
7.96
6.08
3.41
-0.02
-3.99
-8.31
-12.89
-17.85
-23.48
-30.08
-37.83
-46.46
-55.16
-62.49
-66.75
-66.38
-60.51
-49.24
-33.78
-16.01
1.86
17.91
30.70
39.43
43.88
44.26
41.18
35.59
28.69
21.70
15.61
10.96
7.73
5.52
3.70
1.70
-0.83
-3.97
-7.65
-11.72
-16.14
-21.06
-26.75
-33.55
-41.55
-50.35
-58.93
-65.65
-68.68
-66.47
-58.35
-44.78
-27.22
-7.73
11.60
29.08
43.59
54.48
61.49
64.58
64.06
60.61
55.28
49.31
43.79
39.37
36.05
33.31
30.40
26.73
22.13
16.91
11.62
6.79
2.55
-1.45
-5.96
-11.88
-19.88
-29.99
-41.38
-52.33
-60.55
-63.86
-60.87
-51.47
-36.95
-19.53
-1.68
14.55
27.92
37.97
44.78
48.63
49.87
48.99
46.72
44.04
42.01
41.48
42.85
45.93
50.05
54.26
57.65
59.61
59.93
58.70
56.19
52.57
47.80
41.68
33.91
24.23
12.60
-0.88
-15.84
-31.60
-47.08
-60.78
-70.93
-75.88
-74.53
-66.77
-53.63
-36.98
-19.07
-1.95
12.88
24.57
32.79
37.55
39.12
37.99
34.88
30.73
26.52
23.00
20.60
19.25
18.59
18.09
17.26
15.84
13.75
10.98
7.54
3.42
-1.40
-6.87
-12.71
-18.59
-24.13
-29.14
-33.67
-38.09
-42.96
-48.81
-55.93
-63.99
-71.99
-78.24
-80.82
-78.08
-69.29
-54.90
-36.50
-16.37
3.20
20.38
34.12
44.07
50.36
53.38
53.65
51.81
48.57
44.74
41.09
38.23
36.50
35.89
36.06
36.46
36.49
35.62
33.56
30.31
26.03
21.03
15.60
10.01
4.48
-0.88
-6.03
-11.12
-16.48
-22.56
-29.74
-37.98
-46.67
-54.46
-59.56
-60.32
-55.69
-45.75
-31.72
-15.56
0.57
14.86
26.23
34.19
38.71
39.99
38.33
34.21
28.40
22.01
16.23
12.06
9.98
9.74
10.49
11.12
10.73
8.90
5.83
2.07
-1.73
-5.24
-8.48
-11.73
-15.37
-19.65
-24.69
-30.40
-36.48
-42.29
-46.85
-48.91
-47.28
-41.28
-30.99
-17.41
-2.14
13.04
26.65
37.71
45.76
50.70
52.60
51.69
48.33
43.19
37.12
31.05
25.80
21.76
18.90
16.76
14.70
12.12
8.68
4.35
-0.63
-5.87
-11.06
-16.00
-20.70
-25.35
-30.21
-35.55
-41.51
-47.98
-54.46
-60.06
-63.54
-63.64
-59.44
-50.76
-38.33
-23.65
-8.66
4.87
15.69
23.30
27.78
29.57
29.23
27.27
24.23
20.74
17.54
15.36
14.71
15.71
18.01
20.88
23.45
24.97
24.98
23.38
20.38
16.37
11.78
6.95
2.05
-2.95
-8.26
-14.23
-21.17
-29.27
-38.29
-47.51
-55.73
-61.43
-63.19
-60.09
-52.04
-39.88
-25.13
-9.64
4.88
17.14
26.42
32.47
35.38
35.48
33.22
29.18
24.01
18.37
12.92
8.10
4.17
1.12
-1.30
-3.46
-5.73
-8.35
-11.36
-14.60
-17.80
-20.68
-23.10
-25.06
-26.71
-28.25
-29.85
-31.71
-34.07
-37.14
-41.06
-45.62
-50.05
-53.11
-53.32
-49.47
-41.12
-28.81
-13.97
1.56
16.07
28.38
37.92
44.57
48.50
49.88
49.00
46.24
42.22
37.74
33.62
30.40
28.15
26.46
24.63
21.98
18.15
13.27
7.80
2.31
-2.83
-7.57
-12.19
-17.10
-22.64
-28.99
-36.07
-43.61
-51.01
-57.47
-61.94
-63.37
-60.94
-54.35
-43.99
-30.87
-16.38
-1.96
11.12
21.91
29.72
34.13
35.03
32.62
27.65
21.23
14.65
9.00
4.92
2.40
0.94
-0.17
-1.61
-3.73
-6.56
-9.83
-13.19
-16.40
-19.43
-22.55
-26.22
-30.87
-36.69
-43.37
-50.07
-55.46
-58.11
-56.83
-51.05
-41.02
-27.77
-12.78
2.31
16.09
27.57
36.09
41.33
43.26
42.11
38.50
33.41
28.02
23.42
20.27
18.61
17.94
17.48
16.52
14.71
12.11
9.07
6.05
3.35
1.04
-1.12
-3.65
-7.20
-12.34
-19.33
-27.80
-36.67
-44.27
-48.74
-48.62
-43.37
-33.56
-20.72
-6.70
6.82
18.76
28.67
36.41
41.89
44.88
45.21
43.05
39.02
34.11
29.40
25.60
22.83
20.67
18.40
15.37
11.21
5.97
0.03
-6.14
-12.05
-17.49
-22.48
-27.35
-32.66
-38.98
-46.63
-55.43
-64.53
-72.38
-77.15
-77.08
-71.16
-59.44
-43.06
-23.90
-4.12
14.45
30.54
43.45
52.86
58.63
60.77
59.56
55.66
50.10
44.17
38.96
35.07
32.42
30.37
28.10
24.95
20.73
15.65
10.18
4.71
-0.67
-6.09
-11.89
-18.44
-25.98
-34.62
-44.11
-53.78
-62.41
-68.37
-69.94
-65.86
-55.81
-40.57
-21.88
-1.86
17.49
34.66
48.73
59.23
65.92
68.85
68.34
65.14
60.29
54.92
49.89
45.58
41.84
38.17
34.05
29.17
23.54
17.45
11.25
5.23
-0.53
-6.17
-12.00
-18.49
-26.04
-34.83
-44.54
-54.19
-62.18
-66.65
-66.00
-59.48
-47.42
-31.26
-13.05
5.12
21.51
35.03
45.08
51.50
54.40
54.20
51.66
47.89
44.06
41.12
39.51
39.01
38.92
38.35
36.61
33.36
28.70
23.05
16.88
10.58
4.25
-2.34
-9.58
-17.85
-27.14
-36.77
-45.37
-51.13
-52.34
-48.01
-38.18
-23.94
-7.13
10.17
26.00
38.80
47.53
51.66
51.32
47.23
40.68
33.25
26.42
21.18
17.83
16.03
15.08
14.29
13.22
11.72
9.79
7.43
4.50
0.82
-3.81
-9.45
-16.04
-23.38
-31.02
-38.20
-43.84
-46.63
-45.40
-39.56
-29.45
-16.33
-2.08
11.32
22.30
29.94
33.97
34.64
32.58
28.63
23.68
18.61
14.12
10.59
8.12
6.54
5.51
4.69
3.72
2.40
0.61
-1.64
-4.32
-7.36
-10.87
-15.00
-19.86
-25.31
-30.68
-34.88
-36.59
-34.68
-28.72
-19.21
-7.48
4.69
15.55
23.84
28.94
30.78
29.72
26.31
21.22
15.18
8.96
3.28
-1.29
-4.47
-6.29
-7.09
-7.40
-7.74
-8.50
-9.89
-11.94
-14.60
-17.89
-21.91
-26.68
-31.96
-37.10
-40.96
-42.23
-39.79
-33.27
-23.16
-10.85
1.84
13.11
21.66
26.92
28.96
28.29
25.57
21.45
16.46
11.12
5.87
1.16
-2.64
-5.40
-7.24
-8.55
-9.84
-11.52
-13.83
-16.80
-20.36
-24.54
-29.38
-34.84
-40.50
-45.39
-48.13
-47.34
-42.20
-32.82
-20.39
-6.77
6.06
16.56
23.94
28.12
29.48
28.56
25.87
21.88
17.01
11.75
6.64
2.14
-1.42
-4.00
-5.80
-7.22
-8.68
-10.58
-13.22
-16.87
-21.69
-27.67
-34.40
-41.02
-46.26
-48.67
-47.10
-41.03
-30.87
-17.87
-3.78
9.62
20.87
29.08
33.99
35.82
35.12
32.53
28.70
24.21
19.52
14.98
10.82
7.19
4.12
1.57
-0.62
-2.71
-4.97
-7.72
-11.24
-15.76
-21.35
-27.88
-34.82
-41.24
-45.82
-47.15
-44.15
-36.46
-24.65
-10.15
5.14
19.32
31.00
39.45
44.59
46.78
46.61
44.64
41.41
37.37
32.91
28.40
24.10
20.17
16.61
13.29
10.00
6.52
2.74
-1.40
-5.91
-10.89
-16.57
-23.17
-30.65
-38.45
-45.35
-49.71
-49.97
-45.20
-35.58
-22.28
-7.12
8.00
21.58
32.69
40.91
46.09
48.25
47.62
44.69
40.23
35.20
30.42
26.46
23.41
21.01
18.78
16.28
13.19
9.48
5.32
1.03
-3.14
-7.11
-11.05
-15.36
-20.50
-26.81
-34.27
-42.33
-49.92
-55.56
-57.71
-55.16
-47.46
-35.08
-19.39
-2.30
14.18
28.45
39.58
47.30
51.84
53.67
53.27
51.10
47.62
43.33
38.78
34.53
31.00
28.39
26.62
25.37
24.19
22.61
20.27
17.03
12.96
8.27
3.22
-1.96
-7.13
-12.23
-17.19
-22.03
-26.84
-31.92
-37.62
-44.17
-51.28
-58.02
-62.80
-63.90
-59.93
-50.52
-36.41
-19.34
-1.49
15.13
29.04
39.49
46.34
49.82
50.37
48.60
45.25
41.18
37.25
34.12
32.10
31.04
30.47
29.81
28.65
26.89
24.71
22.39
20.11
17.80
15.19
11.95
7.90
3.08
-2.22
-7.58
-12.61
-17.06
-20.89
-24.25
-27.47
-31.09
-35.60
-41.30
-48.02
-54.90
-60.47
-62.97
-60.97
-53.84
-42.07
-27.11
-10.91
4.67
18.24
29.01
36.68
41.24
42.88
42.03
39.39
35.85
32.37
29.67
28.05
27.40
27.28
27.19
26.80
26.02
24.96
23.77
22.50
20.99
18.96
16.11
12.32
7.74
2.74
-2.22
-6.81
-10.95
-14.88
-18.97
-23.64
-29.12
-35.32
-41.72
-47.40
-51.09
-51.58
-48.00
-40.24
-29.00
-15.70
-2.08
10.28
20.24
27.27
31.34
32.78
32.08
29.85
26.70
23.22
19.96
17.34
15.64
14.91
14.96
15.40
15.70
15.39
14.15
11.96
9.05
5.75
2.39
-0.81
-3.83
-6.73
-9.60
-12.56
-15.73
-19.27
-23.31
-27.82
-32.44
-36.38
-38.57
-37.92
-33.75
-26.12
-15.87
-4.42
6.67
16.09
23.03
27.20
28.70
27.83
25.01
20.78
15.83
10.88
6.64
3.51
1.60
0.59
-0.04
-0.82
-2.10
-3.90
-6.04
-8.25
-10.34
-12.30
-14.33
-16.70
-19.71
-23.50
-27.94
-32.59
-36.68
-39.26
-39.44
-36.57
-30.54
-21.74
-11.05
0.40
11.45
21.13
28.71
33.78
36.20
36.17
34.17
30.88
27.08
23.48
20.57
18.55
17.31
16.52
15.77
14.64
12.88
10.37
7.16
3.31
-1.17
-6.38
-12.45
-19.39
-26.91
-34.31
-40.51
-44.33
-44.86
-41.81
-35.58
-27.20
-18.02
-9.32
-2.10
2.99
5.68
5.88
3.73
-0.45
-6.09
-12.43
-18.66
-24.11
-28.43
-31.63
-33.95
-35.70
-37.15
-38.47
-39.80
-41.24
-42.96
-45.14
-47.97
-51.56
-55.89
-60.64
-65.15
-68.39
-69.17
-66.47
-59.80
-49.44
-36.35
-21.95
-7.71
5.15
15.80
23.81
29.04
31.64
31.97
30.58
28.09
25.10
22.03
19.07
16.23
13.38
10.39
7.19
3.75
0.18
-3.50
-7.28
-11.30
-15.88
-21.41
-28.23
-36.42
-45.55
-54.58
-62.01
-66.15
-65.70
-60.14
-49.96
-36.50
-21.53
-6.76
6.56
17.71
26.39
32.47
35.88
36.65
35.08
31.80
27.78
24.04
21.32
19.88
19.45
19.45
19.30
18.63
17.38
15.73
13.88
11.88
9.72
7.20
4.14
0.32
-4.45
-10.35
-17.36
-25.05
-32.44
-38.00
-40.02
-37.13
-28.84
-15.75
0.58
18.11
34.89
49.50
61.11
69.44
74.50
76.49
75.79
73.00
69.01
64.77
61.14
58.65
57.38
57.01
57.02
56.87
56.20
54.89
52.98
50.66
48.12
45.50
42.89
40.31
37.76
35.12
32.19
28.62
23.90
17.57
9.31
-0.68
-11.58
-21.92
-29.88
-33.74
-32.48
-26.11
-15.74
-3.27
9.15
19.62
26.85
30.36
30.36
27.54
22.89
17.43
12.05
7.41
3.91
1.72
0.84
1.09
2.17
3.62
4.91
5.55
5.26
3.96
1.89
-0.67
-3.46
-6.42
-9.70
-13.59
-18.40
-24.30
-31.25
-38.96
-46.76
-53.61
-58.23
-59.28
-55.73
-47.23
-34.31
-18.32
-1.07
15.58
30.13
41.58
49.49
53.74
54.54
52.35
47.94
42.35
36.68
31.88
28.38
26.06
24.33
22.45
19.86
16.35
12.01
7.13
1.95
-3.45
-9.12
-15.18
-21.73
-28.81
-36.39
-44.31
-52.09
-58.85
-63.39
-64.36
-60.77
-52.32
-39.61
-24.03
-7.44
8.34
21.76
31.78
37.90
40.04
38.56
34.20
28.00
21.11
14.55
8.97
4.51
0.85
-2.60
-6.44
-11.03
-16.51
-22.81
-29.76
-37.23
-45.17
-53.61
-62.67
-72.32
-82.27
-91.75
-99.46
-103.80
-103.28
-97.00
-85.01
-68.34
-48.72
-28.14
-8.41
9.04
23.25
33.74
40.46
43.86
44.77
44.26
43.30
42.58
42.38
42.57
42.82
42.78
42.18
40.92
39.06
36.69
33.86
30.41
25.91
19.72
11.23
0.26
-12.63
-25.98
-37.68
-45.46
-47.58
-43.39
-33.50
-19.54
-3.72
11.81
25.34
35.83
42.87
46.47
46.96
44.83
40.77
35.58
30.07
24.92
20.49
16.72
13.27
9.67
5.62
1.09
-3.69
-8.34
-12.62
-16.59
-20.62
-25.32
-31.27
-38.76
-47.52
-56.52
-64.11
-68.34
-67.50
-60.76
-48.43
-31.98
-13.53
4.77
21.22
34.82
45.17
52.20
55.99
56.72
54.80
50.94
46.08
41.19
36.98
33.62
30.82
28.03
24.72
20.66
16.01
11.17
6.55
2.32
-1.67
-5.89
-10.96
-17.42
-25.48
-34.81
-44.45
-52.88
-58.24
-58.94
-54.05
-43.74
-29.22
-12.44
4.49
19.83
32.51
42.09
48.52
51.90
52.42
50.37
46.32
41.11
35.74
31.13
27.78
25.65
24.24
22.80
20.72
17.72
13.94
9.83
5.83
2.19
-1.16
-4.61
-8.69
-13.96
-20.73
-28.92
-37.94
-46.58
-53.24
-56.25
-54.34
-47.08
-35.04
-19.70
-3.04
12.97
26.73
37.27
44.17
47.46
47.45
44.68
39.86
33.83
27.50
21.68
17.01
13.78
11.93
11.09
10.67
10.08
8.91
7.04
4.59
1.89
-0.80
-3.32
-5.79
-8.45
-11.70
-15.89
-21.29
-27.94
-35.46
-42.99
-49.16
-52.34
-51.12
-44.80
-33.69
-19.17
-3.17
12.28
25.63
35.97
42.98
46.66
47.23
45.02
40.60
34.84
28.82
23.58
19.83
17.74
16.93
16.68
16.26
15.19
13.34
10.90
8.18
5.41
2.61
-0.40
-3.96
-8.39
-13.86
-20.27
-27.11
-33.50
-38.25
-40.17
-38.38
-32.57
-23.21
-11.39
1.42
13.73
24.29
32.21
36.96
38.35
36.48
31.77
24.95
17.00
8.94
1.62
-4.51
-9.36
-13.27
-16.68
-20.02
-23.51
-27.18
-30.92
-34.58
-38.14
-41.75
-45.73
-50.45
-56.16
-62.73
-69.43
-74.94
-77.54
-75.66
-68.37
-55.82
-39.23
-20.51
-1.71
15.49
30.01
41.33
49.29
53.94
55.50
54.52
51.81
48.35
45.02
42.35
40.42
38.96
37.58
36.01
34.17
32.15
30.11
28.09
26.04
23.74
20.86
17.01
11.88
5.44
-1.83
-8.85
-14.16
-16.29
-14.28
-8.07
1.44
12.68
23.89
33.61
40.93
45.48
47.25
46.44
43.37
38.54
32.66
26.58
21.13
16.86
13.91
11.93
10.35
8.55
6.18
3.20
-0.19
-3.72
-7.23
-10.81
-14.75
-19.43
-25.20
-32.19
-40.09
-48.16
-55.22
-59.86
-60.82
-57.33
-49.44
-38.04
-24.64
-10.92
1.70
12.23
20.21
25.53
28.24
28.47
26.52
22.87
18.28
13.59
9.56
6.62
4.74
3.46
2.18
0.36
-2.25
-5.53
-9.14
-12.70
-16.00
-19.11
-22.27
-25.90
-30.42
-36.06
-42.76
-49.97
-56.69
-61.51
-62.97
-60.01
-52.36
-40.69
-26.46
-11.46
2.66
14.77
24.30
31.10
35.25
36.86
36.17
33.56
29.68
25.37
21.47
18.58
16.90
16.16
15.78
15.12
13.69
11.27
7.97
4.08
-0.12
-4.40
-8.71
-13.13
-17.75
-22.67
-28.01
-33.87
-40.34
-47.36
-54.53
-61.00
-65.54
-66.87
-64.02
-56.79
-45.83
-32.46
-18.33
-4.97
6.47
15.33
21.31
24.45
25.03
23.63
21.10
18.49
16.85
16.95
19.12
23.04
27.88
32.57
36.12
37.97
38.08
36.88
35.01
32.95
30.87
28.53
25.49
21.33
15.78
8.81
0.63
-8.33
-17.38
-25.55
-31.63
-34.42
-33.00
-27.17
-17.54
-5.42
7.43
19.32
28.90
35.41
38.64
38.82
36.52
32.46
27.51
22.55
18.38
15.52
14.07
13.73
13.83
13.62
12.53
10.34
7.17
3.38
-0.71
-4.93
-9.31
-14.05
-19.39
-25.50
-32.41
-39.81
-46.99
-52.87
-56.13
-55.64
-50.84
-41.96
-29.98
-16.36
-2.69
9.71
19.87
27.22
31.52
32.81
31.35
27.74
22.81
17.56
12.99
9.81
8.24
7.94
8.07
7.68
6.04
2.91
-1.37
-6.14
-10.79
-15.01
-19.00
-23.26
-28.42
-34.88
-42.58
-50.89
-58.63
-64.28
-66.39
-63.94
-56.65
-45.13
-30.65
-14.84
0.76
14.90
26.74
35.78
41.73
44.51
44.32
41.72
37.62
33.14
29.30
26.75
25.58
25.35
25.28
24.59
22.79
19.82
16.00
11.82
7.68
3.70
-0.28
-4.68
-9.94
-16.43
-24.20
-32.92
-41.74
-49.38
-54.31
-55.17
-51.17
-42.39
-29.86
-15.17
-0.12
13.74
25.40
34.34
40.42
43.69
44.37
42.81
39.57
35.43
31.22
27.70
25.31
24.06
23.54
23.09
22.07
20.05
16.96
13.04
8.68
4.22
-0.17
-4.53
-9.04
-13.98
-19.55
-25.90
-33.00
-40.56
-47.92
-54.04
-57.62
-57.36
-52.38
-42.55
-28.64
-12.19
4.87
20.72
34.00
43.96
50.45
53.64
53.94
51.84
47.94
42.95
37.67
32.88
29.15
26.72
25.47
24.92
24.42
23.30
21.13
17.75
13.33
8.22
2.73
-2.90
-8.58
-14.25
-19.88
-25.42
-30.90
-36.54
-42.67
-49.55
-56.96
-63.99
-69.10
-70.54
-66.96
-58.01
-44.47
-28.06
-10.89
5.07
18.49
28.72
35.65
39.51
40.64
39.44
36.45
32.43
28.25
24.80
22.70
22.13
22.72
23.79
24.51
24.24
22.68
19.91
16.24
12.07
7.77
3.49
-0.75
-5.04
-9.55
-14.43
-19.81
-25.79
-32.27
-38.88
-44.85
-49.00
-50.03
-46.88
-39.22
-27.55
-13.18
2.17
16.83
29.46
39.22
45.63
48.49
47.92
44.42
38.92
32.70
27.04
22.89
20.55
19.68
19.46
19.05
17.84
15.68
12.77
9.48
6.11
2.78
-0.61
-4.30
-8.58
-13.72
-19.89
-27.01
-34.59
-41.67
-46.87
-48.81
-46.47
-39.62
-28.92
-15.80
-1.95
11.02
21.87
29.82
34.50
35.85
34.11
29.88
24.10
17.94
12.48
8.48
6.18
5.26
5.02
4.68
3.64
1.64
-1.19
-4.57
-8.22
-12.03
-16.08
-20.60
-25.82
-31.87
-38.60
-45.52
-51.72
-55.94
-56.87
-53.51
-45.52
-33.42
-18.50
-2.47
12.96
26.45
37.12
44.58
48.75
49.80
48.17
44.56
39.86
35.01
30.83
27.74
25.68
24.20
22.64
20.43
17.31
13.40
9.03
4.55
0.06
-4.58
-9.77
-15.92
-23.27
-31.67
-40.52
-48.72
-54.85
-57.44
-55.40
-48.42
-37.04
-22.63
-6.98
8.22
21.66
32.56
40.53
45.41
47.19
46.06
42.56
37.59
32.29
27.70
24.49
22.72
21.89
21.11
19.59
16.86
13.01
8.54
4.08
0.08
-3.44
-6.88
-10.87
-15.97
-22.44
-30.05
-38.03
-45.17
-50.00
-51.08
-47.44
-38.78
-25.78
-9.88
7.04
23.15
37.05
47.94
55.53
59.85
61.08
59.56
55.78
50.52
44.75
39.44
35.33
32.67
31.18
30.16
28.79
26.41
22.78
18.12
12.93
7.74
2.83
-1.90
-6.84
-12.47
-19.19
-27.06
-35.88
-45.04
-53.62
-60.42
-64.16
-63.80
-58.87
-49.69
-37.36
-23.43
-9.59
2.79
12.77
19.79
23.66
24.42
22.47
18.58
13.82
9.40
6.27
4.89
5.08
6.15
7.19
7.42
6.42
4.19
1.03
-2.63
-6.45
-10.26
-14.09
-18.08
-22.46
-27.42
-33.09
-39.40
-45.97
-51.98
-56.22
-57.31
-54.12
-46.20
-34.04
-18.99
-2.95
12.15
24.79
34.03
39.56
41.47
40.16
36.30
30.83
24.88
19.60
15.87
14.01
13.69
14.12
14.34
13.70
11.95
9.31
6.18
2.90
-0.40
-3.88
-7.81
-12.53
-18.22
-24.82
-31.94
-38.72
-43.96
-46.28
-44.55
-38.31
-27.97
-14.78
-0.52
12.99
24.28
32.36
36.82
37.72
35.50
30.91
24.93
18.68
13.14
9.00
6.46
5.28
4.84
4.53
3.79
2.38
0.27
-2.41
-5.54
-9.12
-13.31
-18.34
-24.38
-31.32
-38.53
-44.86
-48.75
-48.69
-43.73
-33.93
-20.39
-4.98
10.18
23.30
33.27
39.60
42.38
41.99
39.03
34.28
28.65
23.04
18.16
14.36
11.58
9.46
7.59
5.62
3.41
0.92
-1.84
-4.97
-8.70
-13.30
-19.03
-25.93
-33.71
-41.59
-48.36
-52.60
-52.99
-48.74
-39.84
-27.13
-12.09
3.49
17.98
30.13
39.17
44.84
47.21
46.71
43.94
39.69
34.84
30.21
26.33
23.36
21.08
19.01
16.67
13.81
10.47
6.91
3.44
0.19
-2.99
-6.50
-10.93
-16.80
-24.27
-32.97
-41.82
-49.13
-53.03
-51.96
-45.28
-33.53
-18.31
-1.80
13.91
27.34
37.79
45.21
49.86
52.07
52.07
50.13
46.67
42.27
37.71
33.69
30.68
28.76
27.65
26.80
25.62
23.69
20.84
17.17
12.92
8.34
3.57
-1.36
-6.48
-11.79
-17.27
-22.89
-28.75
-35.05
-41.91
-49.16
-56.05
-61.24
-63.09
-60.22
-52.03
-39.05
-22.84
-5.48
11.01
25.21
36.44
44.61
49.89
52.52
52.75
50.98
47.85
44.22
40.94
38.60
37.26
36.56
35.91
34.78
33.00
30.68
28.17
25.72
23.34
20.75
17.52
13.31
8.04
1.97
-4.41
-10.59
-16.25
-21.32
-25.97
-30.55
-35.40
-40.83
-47.02
-53.88
-60.99
-67.42
-71.88
-72.94
-69.50
-61.23
-48.76
-33.55
-17.46
-2.28
10.73
20.93
28.22
32.71
34.64
34.33
32.21
28.97
25.42
22.37
20.34
19.42
19.27
19.32
19.01
18.02
16.30
14.06
11.62
9.20
6.89
4.61
2.17
-0.58
-3.78
-7.38
-11.28
-15.29
-19.23
-22.88
-26.16
-29.03
-31.64
-34.31
-37.41
-41.21
-45.56
-49.76
-52.61
-52.73
-49.03
-41.14
-29.60
-15.69
-1.09
12.62
24.24
33.13
39.07
42.20
42.86
41.54
38.81
35.34
31.80
28.71
26.40
24.93
24.17
23.82
23.58
23.11
22.16
20.54
18.19
15.14
11.56
7.66
3.69
-0.13
-3.68
-6.96
-10.13
-13.50
-17.45
-22.24
-27.77
-33.49
-38.34
-41.08
-40.72
-36.85
-29.84
-20.71
-10.80
-1.37
6.66
12.75
16.66
18.33
17.80
15.27
11.16
6.13
1.03
-3.31
-6.27
-7.68
-7.81
-7.28
-6.81
-6.98
-8.01
-9.76
-11.87
-13.99
-15.91
-17.73
-19.67
-22.10
-25.28
-29.36
-34.25
-39.54
-44.52
-48.21
-49.56
-47.70
-42.29
-33.59
-22.46
-10.16
1.98
12.85
21.60
27.78
31.23
32.05
30.58
27.40
23.25
18.99
15.41
13.10
12.21
12.44
13.10
13.37
12.67
10.86
8.22
5.27
2.44
-0.21
-2.99
-6.37
-10.75
-16.24
-22.61
-29.30
-35.52
-40.30
-42.59
-41.56
-36.77
-28.46
-17.53
-5.37
6.57
17.10
25.51
31.50
35.06
36.30
35.36
32.52
28.28
23.40
18.70
14.88
12.27
10.72
9.68
8.42
6.35
3.19
-0.89
-5.46
-10.03
-14.29
-18.25
-22.21
-26.70
-32.14
-38.75
-46.29
-54.05
-60.89
-65.50
-66.71
-63.78
-56.65
-46.00
-33.05
-19.32
-6.22
5.19
14.28
20.84
24.96
26.90
27.01
25.75
23.70
21.53
19.84
19.03
19.16
19.90
20.68
20.89
20.17
18.45
15.99
13.15
10.21
7.23
4.05
0.42
-3.93
-9.22
-15.49
-22.63
-30.26
-37.59
-43.49
-46.69
-46.15
-41.41
-32.86
-21.61
-9.20
2.88
13.50
21.97
27.96
31.33
32.04
30.23
26.37
21.22
15.81
11.11
7.80
6.08
5.62
5.76
5.77
5.06
3.41
0.87
-2.18
-5.37
-8.36
-11.07
-13.60
-16.22
-19.24
-22.91
-27.26
-32.01
-36.55
-39.90
-40.96
-38.73
-32.65
-22.86
-10.24
3.76
17.47
29.38
38.45
44.20
46.65
46.21
43.52
39.34
34.52
29.88
26.13
23.70
22.62
22.49
22.63
22.33
21.08
18.76
15.60
11.96
8.17
4.31
0.25
-4.30
-9.60
-15.67
-22.26
-28.76
-34.23
-37.63
-38.00
-34.82
-28.21
-18.97
-8.43
1.90
10.68
16.99
20.38
20.82
18.58
14.24
8.58
2.57
-2.85
-6.93
-9.28
-10.02
-9.57
-8.56
-7.53
-6.86
-6.69
-7.05
-7.88
-9.20
-11.16
-13.94
-17.75
-22.63
-28.27
-33.91
-38.37
-40.33
-38.70
-33.07
-23.90
-12.44
-0.41
10.56
19.25
25.06
27.93
28.16
26.22
22.69
18.20
13.45
9.11
5.69
3.40
2.11
1.44
0.91
0.15
-1.06
-2.79
-5.02
-7.82
-11.33
-15.75
-21.11
-27.12
-33.00
-37.60
-39.61
-37.93
-32.13
-22.58
-10.51
2.41
14.38
24.03
30.54
33.72
33.88
31.59
27.50
22.29
16.60
11.05
6.21
2.44
-0.14
-1.71
-2.69
-3.61
-4.93
-6.92
-9.70
-13.41
-18.15
-24.05
-30.93
-38.16
-44.50
-48.33
-48.08
-42.87
-32.83
-19.21
-3.97
10.80
23.36
32.74
38.64
41.25
41.04
38.54
34.35
29.11
23.50
18.15
13.51
9.73
6.70
4.10
1.61
-1.09
-4.14
-7.67
-11.83
-16.87
-23.08
-30.59
-39.10
-47.68
-54.79
-58.58
-57.49
-50.75
-38.75
-22.88
-5.18
12.19
27.51
39.68
48.24
53.22
54.96
54.04
51.14
47.03
42.38
37.73
33.34
29.24
25.29
21.33
17.25
13.04
8.75
4.42
-0.05
-4.86
-10.45
-17.28
-25.65
-35.34
-45.42
-54.17
-59.49
-59.46
-53.09
-40.71
-23.90
-4.96
13.78
30.63
44.67
55.69
63.77
68.99
71.35
70.90
67.92
63.10
57.44
52.01
47.60
44.49
42.30
40.24
37.38
33.08
27.23
20.25
12.88
5.82
-0.60
-6.48
-12.29
-18.59
-25.86
-34.35
-43.95
-54.07
-63.60
-70.89
-74.05
-71.42
-62.19
-46.77
-26.77
-4.58
17.32
36.97
53.24
65.74
74.53
79.89
82.14
81.73
79.29
75.72
71.97
68.88
66.90
65.98
65.62
65.16
64.04
62.09
59.54
56.77
54.08
51.39
48.29
44.19
38.72
31.87
24.11
16.13
8.56
1.72
-4.51
-10.56
-17.04
-24.46
-33.17
-43.21
-54.24
-65.44
-75.43
-82.48
-84.83
-81.22
-71.34
-56.07
-37.27
-17.28
1.67
18.01
30.96
40.40
46.58
49.88
50.71
49.55
47.02
43.89
40.96
38.86
37.93
38.03
38.67
39.19
38.97
37.66
35.27
32.14
28.73
25.44
22.41
19.48
16.29
12.46
7.77
2.27
-3.74
-9.82
-15.56
-20.71
-25.25
-29.34
-33.28
-37.43
-42.10
-47.52
-53.63
-60.03
-65.79
-69.67
-70.31
-66.67
-58.41
-46.03
-30.87
-14.70
0.74
14.09
24.60
32.05
36.59
38.55
38.33
36.42
33.45
30.16
27.32
25.50
24.92
25.32
26.13
26.66
26.39
25.13
23.06
20.52
17.88
15.32
12.80
10.12
7.02
3.32
-0.98
-5.72
-10.60
-15.32
-19.58
-23.26
-26.41
-29.24
-32.14
-35.51
-39.67
-44.58
-49.75
-54.23
-56.80
-56.26
-51.93
-43.86
-32.89
-20.44
-8.09
2.78
11.26
16.95
19.80
20.03
17.93
13.94
8.63
2.68
-3.23
-8.58
-13.17
-17.21
-21.21
-25.78
-31.42
-38.33
-46.41
-55.31
-64.59
-73.84
-82.80
-91.28
-99.10
-106.06
-111.86
-116.16
-118.64
-119.04
-117.27
-113.33
-107.38
-99.62
-90.28
-79.56
-67.59
-54.30
-39.40
-22.42
-2.71
20.18
46.24
74.71
104.11
132.46
157.71
178.25
193.22
202.66
207.30
208.33
207.09
204.78
202.22
199.65
196.67
192.31
185.38
174.91
160.52
142.56
121.94
99.81
77.28
55.29
34.59
15.82
-0.52
-14.12
-25.06
-33.78
-41.00
-47.51
-53.90
-60.46
-67.09
-73.33
-78.62
-82.34
-84.17
-84.08
-82.42
-79.80
-76.94
-74.43
-72.69
-71.96
-72.38
-74.03
-76.91
-80.86
-85.46
-90.08
-94.00
-96.60
-97.57
-96.99
-95.26
-92.90
-90.34
-87.79
-85.24
-82.56
-79.58
-76.16
-72.16
-67.47
-62.07
-56.11
-50.04
-44.42
-39.85
-36.70
-34.92
-34.02
-33.16
-31.43
-28.05
-22.67
-15.49
-7.19
1.25
8.87
15.11
19.89
23.57
26.75
30.01
33.75
38.23
43.66
50.24
58.00
66.82
76.36
86.17
95.95
105.52
114.86
123.87
132.25
139.55
145.30
149.33
151.87
153.40
154.23
154.22
152.60
148.33
140.59
129.41
115.76
101.22
87.48
75.65
65.98
57.96
50.69
43.23
34.91
25.43
14.66
2.73
-10.20
-23.78
-37.62
-51.21
-64.00
-75.40
-84.85
-91.93
-96.52
-98.88
-99.64
-99.63
-99.60
-99.99
-100.87
-102.02
-103.15
-104.12
-104.92
-105.57
-105.88
-105.31
-103.03
-98.20
-90.32
-79.55
-66.73
-53.20
-40.43
-29.64
-21.54
-16.31
-13.74
-13.36
-14.66
-17.12
-20.24
-23.54
-26.59
-29.05
-30.72
-31.63
-32.01
-32.19
-32.56
-33.42
-34.93
-37.17
-40.10
-43.64
-47.68
-52.01
-56.27
-59.78
-61.62
-60.79
-56.53
-48.65
-37.68
-24.83
-11.63
0.50
10.49
17.85
22.50
24.69
24.81
23.41
21.13
18.64
16.52
15.07
14.32
13.96
13.55
12.73
11.26
9.08
6.25
2.77
-1.49
-6.77
-13.25
-20.92
-29.33
-37.56
-44.35
-48.37
-48.61
-44.63
-36.75
-25.90
-13.46
-0.89
10.50
19.77
26.41
30.32
31.75
31.24
29.43
27.02
24.56
22.42
20.72
19.39
18.22
16.97
15.50
13.75
11.72
9.40
6.76
3.63
-0.20
-5.01
-10.91
-17.72
-24.75
-30.88
-34.70
-35.02
-31.17
-23.38
-12.67
-0.58
11.35
21.88
30.29
36.20
39.54
40.39
39.04
36.03
32.10
28.06
24.49
21.61
19.27
17.09
14.73
12.04
9.05
5.91
2.75
-0.44
-3.78
-7.55
-12.07
-17.59
-24.17
-31.45
-38.58
-44.29
-47.12
-45.91
-40.22
-30.54
-18.10
-4.53
8.66
20.35
29.92
37.05
41.62
43.56
43.04
40.48
36.66
32.56
29.07
26.74
25.63
25.30
25.05
24.16
22.14
18.88
14.64
9.86
5.01
0.33
-4.24
-9.00
-14.42
-20.88
-28.43
-36.65
-44.60
-50.95
-54.30
-53.54
-48.18
-38.59
-25.88
-11.60
2.56
15.22
25.43
32.72
36.97
38.35
37.25
34.31
30.37
26.36
23.10
21.05
20.19
20.06
19.97
19.31
17.75
15.33
12.32
9.04
5.67
2.14
-1.86
-6.76
-12.87
-20.23
-28.34
-36.20
-42.35
-45.32
-43.95
-37.82
-27.39
-13.97
0.65
14.63
26.44
35.08
40.19
41.94
40.89
37.83
33.65
29.26
25.33
22.31
20.26
18.96
18.00
16.94
15.44
13.36
10.70
7.55
4.01
0.06
-4.45
-9.74
-16.01
-23.24
-30.96
-38.19
-43.54
-45.50
-42.94
-35.49
-23.71
-9.03
6.65
21.39
33.57
42.14
46.67
47.31
44.75
40.05
34.49
29.28
25.28
22.82
21.72
21.41
21.21
20.56
19.12
16.85
13.88
10.42
6.66
2.66
-1.70
-6.69
-12.59
-19.43
-26.80
-33.68
-38.58
-39.95
-36.67
-28.50
-16.25
-1.59
13.43
26.85
37.23
43.83
46.54
45.76
42.26
37.06
31.26
25.90
21.80
19.36
18.45
18.56
18.93
18.82
17.76
15.63
12.61
9.05
5.24
1.27
-3.03
-8.02
-14.10
-21.39
-29.52
-37.47
-43.67
-46.39
-44.31
-36.98
-25.04
-10.10
5.73
20.40
32.29
40.43
44.48
44.62
41.46
35.98
29.40
22.98
17.73
14.15
12.13
11.14
10.41
9.27
7.41
4.81
1.71
-1.63
-5.03
-8.42
-11.87
-15.56
-19.77
-24.76
-30.62
-36.96
-42.83
-46.71
-47.02
-42.58
-33.22
-19.91
-4.51
10.77
23.99
33.85
39.81
41.93
40.67
36.75
31.13
24.91
19.16
14.70
11.89
10.58
10.21
10.09
9.59
8.35
6.28
3.50
0.17
-3.59
-7.81
-12.72
-18.57
-25.47
-33.09
-40.52
-46.34
-48.95
-47.10
-40.31
-29.13
-14.97
0.21
14.45
26.15
34.35
38.74
39.53
37.34
33.00
27.44
21.57
16.15
11.70
8.45
6.32
4.99
4.01
2.92
1.37
-0.80
-3.61
-7.05
-11.20
-16.27
-22.52
-30.06
-38.47
-46.67
-52.99
-55.61
-53.12
-45.10
-32.32
-16.56
-0.09
14.96
27.02
35.27
39.55
40.17
37.78
33.26
27.59
21.75
16.53
12.42
9.49
7.52
6.07
4.71
3.10
1.06
-1.49
-4.58
-8.27
-12.69
-18.03
-24.45
-31.95
-40.10
-47.96
-54.05
-56.74
-54.69
-47.35
-35.28
-19.98
-3.49
12.22
25.65
36.04
43.17
47.08
47.99
46.21
42.30
37.13
31.78
27.23
24.01
22.06
20.79
19.41
17.26
14.07
9.96
5.28
0.39
-4.54
-9.59
-15.05
-21.36
-28.88
-37.61
-46.88
-55.30
-60.95
-61.90
-56.93
-46.01
-30.37
-12.18
6.22
22.92
36.76
47.32
54.60
58.73
59.87
58.28
54.46
49.25
43.68
38.74
35.12
32.99
31.95
31.21
29.92
27.47
23.68
18.82
13.43
8.03
2.89
-2.03
-7.00
-12.37
-18.41
-25.30
-33.13
-41.78
-50.82
-59.24
-65.47
-67.69
-64.39
-54.95
-40.05
-21.53
-1.85
16.67
32.41
44.64
53.31
58.65
60.96
60.60
58.08
54.23
50.08
46.60
44.36
43.34
43.01
42.63
41.58
39.61
36.84
33.59
30.09
26.30
21.96
16.67
10.22
2.75
-5.26
-13.17
-20.42
-26.77
-32.35
-37.61
-43.13
-49.48
-57.01
-65.71
-74.98
-83.61
-89.86
-91.89
-88.28
-78.57
-63.53
-44.93
-25.05
-6.03
10.59
24.03
34.13
41.02
44.94
46.18
45.16
42.59
39.41
36.64
35.04
34.91
35.93
37.36
38.32
38.12
36.57
33.89
30.64
27.36
24.31
21.41
18.29
14.49
9.76
4.17
-1.91
-7.95
-13.52
-18.44
-22.84
-27.09
-31.67
-37.04
-43.52
-51.11
-59.34
-67.16
-73.00
-75.12
-72.14
-63.55
-50.00
-33.18
-15.28
1.63
16.05
27.27
35.12
39.78
41.55
40.87
38.40
35.02
31.71
29.24
28.01
27.87
28.30
28.70
28.59
27.81
26.44
24.68
22.59
20.11
17.02
13.13
8.41
3.05
-2.59
-8.12
-13.23
-17.81
-21.99
-26.08
-30.51
-35.65
-41.73
-48.50
-55.18
-60.38
-62.47
-60.06
-52.49
-40.24
-24.81
-8.27
7.39
20.71
30.97
38.01
41.92
42.90
41.21
37.32
32.12
26.77
22.43
19.96
19.51
20.57
22.18
23.30
23.23
21.76
19.17
15.97
12.67
9.57
6.70
3.91
0.98
-2.26
-5.93
-10.12
-14.90
-20.12
-25.34
-29.65
-31.82
-30.62
-25.32
-15.98
-3.50
10.59
24.61
37.09
46.97
53.61
56.74
56.35
52.79
46.73
39.22
31.41
24.35
18.64
14.34
11.02
8.00
4.58
0.29
-5.03
-11.28
-18.20
-25.53
-33.10
-40.85
-48.85
-57.20
-65.92
-74.80
-83.24
-90.26
-94.61
-95.08
-90.84
-81.81
-68.72
-52.95
-36.19
-20.08
-5.85
5.73
14.26
19.67
22.04
21.76
19.48
16.15
12.81
10.31
8.97
8.53
8.27
7.38
5.38
2.27
-1.53
-5.46
-9.19
-12.78
-16.71
-21.63
-28.09
-36.31
-45.90
-55.86
-64.69
-70.67
-72.32
-68.75
-59.98
-46.93
-31.21
-14.60
1.26
15.14
26.34
34.47
39.42
41.26
40.31
37.13
32.62
27.80
23.62
20.69
19.07
18.38
17.93
17.05
15.31
12.64
9.20
5.27
1.05
-3.46
-8.47
-14.36
-21.52
-30.14
-39.91
-49.87
-58.41
-63.60
-63.83
-58.36
-47.63
-33.18
-17.08
-1.30
12.77
24.46
33.58
40.16
44.17
45.60
44.65
41.87
38.15
34.55
31.93
30.66
30.54
30.89
30.88
29.80
27.42
23.93
19.83
15.67
11.80
8.23
4.73
0.86
-3.81
-9.60
-16.70
-25.01
-33.98
-42.58
-49.29
-52.43
-50.63
-43.34
-31.08
-15.39
1.63
17.91
31.89
42.76
50.38
54.97
56.88
56.48
54.20
50.64
46.54
42.72
39.80
38.02
37.13
36.50
35.42
33.36
30.13
25.93
21.10
15.97
10.69
5.24
-0.55
-6.73
-13.27
-20.03
-26.89
-33.90
-41.25
-49.11
-57.27
-64.98
-70.86
-73.30
-70.92
-63.20
-50.72
-35.06
-18.29
-2.43
11.05
21.36
28.30
31.99
32.78
31.20
27.96
24.03
20.48
18.20
17.65
18.70
20.65
22.54
23.42
22.78
20.59
17.31
13.56
9.93
6.69
3.76
0.78
-2.68
-6.95
-12.20
-18.44
-25.48
-32.94
-40.15
-46.03
-49.26
-48.59
-43.26
-33.39
-20.07
-5.12
9.45
21.96
31.37
37.35
40.09
40.00
37.63
33.52
28.36
23.00
18.30
14.96
13.28
13.00
13.41
13.64
12.94
11.02
8.04
4.43
0.70
-2.85
-6.25
-9.80
-13.92
-18.98
-25.11
-32.03
-38.99
-44.77
-47.95
-47.23
-41.92
-32.17
-19.02
-4.06
10.97
24.53
35.57
43.46
47.97
49.10
47.19
42.90
37.21
31.30
26.21
22.62
20.60
19.72
19.13
17.99
15.71
12.13
7.52
2.37
-2.83
-7.86
-12.84
-18.18
-24.38
-31.78
-40.35
-49.49
-58.08
-64.60
-67.53
-65.71
-58.81
-47.43
-32.99
-17.25
-1.92
11.74
23.02
31.58
37.30
40.14
40.17
37.77
33.67
28.96
24.76
21.91
20.67
20.70
21.20
21.30
20.38
18.22
15.03
11.24
7.22
3.16
-1.09
-5.84
-11.50
-18.32
-26.27
-34.84
-43.05
-49.52
-52.75
-51.55
-45.42
-34.86
-21.16
-6.14
8.45
21.34
31.84
39.75
45.05
47.73
47.77
45.35
41.02
35.69
30.46
26.24
23.43
21.84
20.79
19.44
17.12
13.64
9.22
4.36
-0.43
-4.90
-9.13
-13.49
-18.46
-24.44
-31.59
-39.69
-48.13
-55.82
-61.37
-63.30
-60.48
-52.46
-39.83
-24.02
-7.00
9.29
23.42
34.60
42.68
47.79
50.18
50.14
48.02
44.45
40.22
36.23
33.23
31.51
30.90
30.79
30.43
29.23
26.87
23.40
19.11
14.35
9.44
4.54
-0.29
-5.11
-10.03
-15.23
-20.94
-27.41
-34.74
-42.63
-50.26
-56.29
-59.13
-57.43
-50.63
-39.22
-24.68
-9.03
5.72
18.15
27.56
33.88
37.38
38.42
37.39
34.75
31.08
27.09
23.50
20.82
19.25
18.63
18.50
18.30
17.52
15.83
13.09
9.40
5.00
0.19
-4.72
-9.56
-14.23
-18.82
-23.49
-28.48
-34.04
-40.29
-47.16
-54.15
-60.29
-64.24
-64.63
-60.50
-51.68
-38.97
-23.94
-8.43
5.82
17.64
26.42
32.01
34.57
34.46
32.26
28.78
24.97
21.78
19.85
19.41
20.17
21.51
22.65
22.92
21.94
19.66
16.32
12.35
8.13
3.94
-0.18
-4.35
-8.77
-13.65
-19.12
-25.27
-32.05
-39.24
-46.27
-52.13
-55.52
-55.16
-50.27
-40.92
-28.14
-13.64
0.71
13.32
23.18
29.85
33.32
33.81
31.72
27.70
22.63
17.56
13.47
10.97
10.18
10.64
11.51
11.92
11.21
9.19
6.09
2.40
-1.36
-4.92
-8.37
-12.04
-16.42
-21.88
-28.50
-35.89
-43.21
-49.23
-52.59
-52.15
-47.38
-38.51
-26.53
-12.96
0.60
12.77
22.62
29.62
33.59
34.55
32.80
28.93
23.91
18.92
15.05
12.96
12.68
13.59
14.77
15.33
14.82
13.21
10.87
8.24
5.53
2.67
-0.71
-5.07
-10.79
-18.01
-26.42
-35.20
-43.03
-48.36
-49.70
-46.18
-37.78
-25.46
-10.87
4.08
17.76
29.05
37.42
42.75
45.12
44.78
42.10
37.69
32.41
27.19
22.83
19.75
17.85
16.56
15.15
12.97
9.80
5.77
1.34
-3.06
-7.20
-11.17
-15.34
-20.22
-26.22
-33.43
-41.46
-49.35
-55.67
-58.87
-57.64
-51.46
-40.71
-26.63
-10.92
4.70
18.89
30.77
39.86
45.95
48.96
49.05
46.61
42.40
37.40
32.62
28.84
26.34
24.89
23.87
22.52
20.26
16.84
12.44
7.50
2.50
-2.25
-6.72
-11.19
-16.12
-21.95
-28.92
-36.90
-45.27
-52.87
-58.23
-59.85
-56.74
-48.72
-36.59
-21.98
-6.86
7.05
18.62
27.40
33.48
37.12
38.49
37.74
35.13
31.22
26.92
23.24
20.90
20.10
20.38
20.88
20.67
19.14
16.17
12.06
7.35
2.52
-2.11
-6.49
-10.77
-15.23
-20.16
-25.83
-32.35
-39.56
-46.92
-53.37
-57.50
-57.86
-53.44
-44.07
-30.64
-14.87
1.16
15.60
27.25
35.66
40.89
43.24
43.12
40.94
37.29
32.95
28.81
25.64
23.86
23.39
23.71
24.07
23.73
22.21
19.40
15.51
10.99
6.29
1.69
-2.75
-7.19
-11.90
-17.10
-22.91
-29.37
-36.42
-43.85
-51.19
-57.58
-61.80
-62.49
-58.64
-49.94
-37.15
-21.90
-6.32
7.61
18.52
25.86
29.75
30.69
29.29
26.12
21.81
17.09
12.78
9.63
8.07
8.03
8.94
9.97
10.29
9.40
7.22
4.03
0.31
-3.50
-7.09
-10.41
-13.57
-16.83
-20.53
-24.99
-30.41
-36.72
-43.46
-49.66
-54.01
-55.05
-51.72
-43.68
-31.60
-16.94
-1.65
12.46
24.06
32.44
37.48
39.37
38.53
35.52
31.11
26.20
21.72
18.43
16.62
16.12
16.33
16.52
16.03
14.52
11.96
8.58
4.78
0.88
-2.93
-6.71
-10.71
-15.33
-20.84
-27.26
-34.13
-40.51
-45.12
-46.58
-43.93
-36.91
-26.08
-12.73
1.48
14.90
26.22
34.56
39.50
41.00
39.40
35.37
29.94
24.25
19.36
15.91
14.00
13.21
12.81
12.10
10.60
8.23
5.18
1.76
-1.80
-5.48
-9.48
-14.17
-19.90
-26.85
-34.80
-43.05
-50.38
-55.32
-56.44
-52.81
-44.36
-31.91
-17.02
-1.57
12.72
24.55
33.19
38.38
40.21
39.04
35.49
30.46
25.05
20.30
16.97
15.27
14.76
14.63
13.96
12.11
8.96
4.85
0.34
-4.11
-8.36
-12.67
-17.57
-23.59
-31.00
-39.55
-48.43
-56.35
-61.71
-63.03
-59.37
-50.67
-37.83
-22.49
-6.52
8.43
21.26
31.43
38.68
42.90
44.06
42.37
38.48
33.47
28.64
25.03
23.07
22.42
22.21
21.43
19.39
15.95
11.45
6.44
1.42
-3.40
-8.11
-13.04
-18.59
-25.11
-32.81
-41.59
-50.91
-59.69
-66.35
-69.16
-66.71
-58.51
-45.21
-28.50
-10.66
6.19
20.57
31.80
39.87
45.00
47.51
47.66
45.86
42.75
39.24
36.23
34.38
33.80
34.09
34.50
34.26
32.92
30.33
26.74
22.48
17.88
13.12
8.21
3.06
-2.42
-8.32
-14.70
-21.67
-29.39
-37.89
-46.90
-55.58
-62.50
-65.91
-64.32
-57.04
-44.58
-28.55
-11.15
5.51
19.91
31.30
39.50
44.69
47.13
47.22
45.48
42.69
39.70
37.33
36.07
35.99
36.79
37.88
38.64
38.55
37.27
34.67
30.77
25.75
19.87
13.45
6.87
0.45
-5.61
-11.28
-16.74
-22.38
-28.64
-35.92
-44.31
-53.36
-62.00
-68.64
-71.48
-69.08
-60.91
-47.60
-30.88
-13.09
3.54
17.34
27.58
34.25
37.79
38.81
37.92
35.75
32.95
30.20
28.11
26.98
26.84
27.38
28.11
28.52
28.18
26.81
24.30
20.77
16.49
11.86
7.26
2.89
-1.25
-5.43
-9.95
-15.13
-21.17
-28.12
-35.84
-43.86
-51.33
-56.93
-59.21
-56.93
-49.61
-37.79
-22.97
-7.15
7.72
20.25
29.72
35.96
39.06
39.24
36.84
32.44
26.98
21.60
17.37
14.94
14.32
14.91
15.75
15.93
14.84
12.36
8.77
4.61
0.42
-3.48
-7.04
-10.47
-14.17
-18.60
-24.03
-30.48
-37.54
-44.38
-49.75
-52.25
-50.62
-44.19
-33.13
-18.51
-2.12
14.06
28.27
39.30
46.57
50.02
49.95
46.91
41.70
35.40
29.23
24.30
21.28
20.18
20.33
20.63
20.07
18.04
14.52
10.05
5.33
0.92
-3.03
-6.76
-10.87
-16.01
-22.69
-30.98
-40.41
-49.82
-57.57
-61.81
-61.06
-54.67
-43.06
-27.68
-10.60
6.10
20.76
32.39
40.57
45.32
46.86
45.59
42.14
37.40
32.42
28.15
25.20
23.62
22.98
22.54
21.56
19.54
16.36
12.25
7.63
2.88
-1.73
-6.24
-10.92
-16.24
-22.71
-30.62
-39.81
-49.46
-58.07
-63.76
-64.77
-60.09
-49.82
-35.23
-18.38
-1.44
13.84
26.47
36.09
42.71
46.40
47.26
45.47
41.55
36.36
31.00
26.52
23.57
22.20
21.89
21.77
20.97
18.93
15.50
10.98
5.86
0.61
-4.49
-9.40
-14.29
-19.42
-25.10
-31.63
-39.16
-47.51
-56.00
-63.32
-67.74
-67.61
-61.95
-50.84
-35.51
-17.96
-0.39
15.41
28.31
37.87
44.10
47.28
47.79
46.16
43.05
39.25
35.57
32.66
30.87
30.20
30.30
30.55
30.25
28.82
25.97
21.76
16.52
10.75
4.90
-0.73
-6.14
-11.41
-16.79
-22.55
-28.95
-36.18
-44.21
-52.52
-60.02
-65.09
-65.98
-61.43
-51.20
-36.31
-18.79
-1.06
14.76
27.36
36.30
41.82
44.44
44.70
43.12
40.24
36.67
33.14
30.21
28.20
27.07
26.38
25.59
24.16
21.80
18.45
14.27
9.53
4.55
-0.47
-5.35
-10.05
-14.61
-19.24
-24.21
-29.82
-36.32
-43.79
-51.96
-60.14
-67.15
-71.48
-71.62
-66.56
-56.19
-41.49
-24.34
-6.98
8.59
21.11
30.05
35.54
37.94
37.73
35.42
31.64
27.26
23.20
20.28
18.93
19.07
20.17
21.44
22.13
21.67
19.86
16.81
12.87
8.50
4.09
-0.16
-4.30
-8.58
-13.33
-18.83
-25.21
-32.37
-39.96
-47.30
-53.34
-56.78
-56.36
-51.25
-41.47
-27.99
-12.54
2.89
16.55
27.33
34.74
38.76
39.67
37.94
34.19
29.32
24.37
20.31
17.76
16.81
17.04
17.69
17.96
17.29
15.43
12.50
8.82
4.75
0.58
-3.61
-7.90
-12.60
-18.05
-24.56
-32.12
-40.22
-47.70
-52.97
-54.45
-51.02
-42.53
-29.84
-14.63
1.14
15.74
27.85
36.73
42.03
43.74
42.15
37.98
32.25
26.23
21.08
17.52
15.70
15.15
15.03
14.45
12.74
9.67
5.48
0.70
-4.06
-8.38
-12.28
-16.15
-20.70
-26.62
-34.30
-43.51
-53.27
-61.97
-67.69
-68.72
-64.12
-54.06
-39.78
-23.19
-6.32
9.18
22.30
32.56
39.76
43.88
44.98
43.37
39.77
35.18
30.76
27.41
25.53
24.90
24.79
24.29
22.67
19.59
15.20
10.01
4.61
-0.54
-5.27
-9.78
-14.54
-20.15
-27.12
-35.67
-45.50
-55.64
-64.52
-70.25
-71.14
-66.21
-55.56
-40.44
-22.81
-4.89
11.48
25.09
35.46
42.58
46.63
47.90
46.76
43.73
39.51
34.89
30.61
27.16
24.68
23.01
21.78
20.56
18.98
16.76
13.79
10.11
5.88
1.30
-3.47
-8.36
-13.41
-18.71
-24.38
-30.57
-37.41
-44.96
-52.95
-60.59
-66.48
-68.91
-66.31
-57.95
-44.31
-27.05
-8.55
8.88
23.60
34.85
42.63
47.25
49.12
48.67
46.43
43.17
39.90
37.47
36.37
36.45
37.09
37.49
37.05
35.58
33.25
30.30
26.88
23.00
18.57
13.59
8.22
2.76
-2.52
-7.54
-12.40
-17.39
-22.92
-29.33
-36.79
-45.07
-53.37
-60.32
-64.20
-63.46
-57.21
-45.70
-30.23
-12.86
4.24
19.32
31.32
39.86
45.00
47.04
46.44
43.85
40.11
36.16
32.81
30.52
29.29
28.77
28.37
27.57
26.04
23.67
20.55
16.84
12.72
8.29
3.61
-1.32
-6.49
-11.79
-17.01
-21.93
-26.39
-30.43
-34.40
-38.86
-44.41
-51.27
-59.00
-66.38
-71.60
-72.85
-68.85
-59.39
-45.43
-28.83
-11.73
3.94
16.94
26.70
33.19
36.69
37.61
36.44
33.81
30.50
27.31
24.97
23.89
24.11
25.28
26.78
27.95
28.28
27.47
25.48
22.45
18.62
14.28
9.66
4.99
0.43
-3.95
-8.20
-12.54
-17.29
-22.80
-29.22
-36.29
-43.18
-48.50
-50.67
-48.36
-40.95
-28.85
-13.42
3.44
19.81
34.13
45.44
53.25
57.42
58.10
55.71
51.06
45.26
39.61
35.19
32.63
31.91
32.40
33.16
33.22
31.96
29.16
25.11
20.39
15.69
11.45
7.72
4.18
0.21
-4.77
-11.09
-18.66
-26.89
-34.72
-40.80
-43.67
-42.08
-35.41
-23.88
-8.62
8.55
25.61
40.81
53.04
61.81
67.13
69.22
68.36
64.93
59.50
52.91
46.17
40.17
35.36
31.53
28.00
23.90
18.60
12.00
4.51
-3.20
-10.58
-17.36
-23.69
-29.91
-36.38
-43.37
-50.97
-59.12
-67.45
-75.23
-81.29
-84.15
-82.46
-75.49
-63.46
-47.59
-29.80
-12.10
3.95
17.38
27.86
35.29
39.65
40.97
39.46
35.72
30.75
25.83
22.08
20.12
19.76
20.18
20.21
18.87
15.74
11.06
5.53
-0.08
-5.31
-10.19
-15.12
-20.62
-27.10
-34.71
-43.37
-52.71
-62.09
-70.48
-76.53
-78.73
-75.92
-67.70
-54.65
-38.32
-20.75
-3.98
10.50
21.82
29.75
34.44
36.22
35.56
32.97
29.11
24.69
20.42
16.79
14.05
12.05
10.35
8.38
5.65
1.93
-2.69
-7.87
-13.24
-18.54
-23.75
-28.94
-34.29
-39.88
-45.77
-52.05
-58.79
-65.96
-73.11
-79.21
-82.70
-81.94
-75.81
-64.20
-48.19
-29.79
-11.29
5.29
18.68
28.35
34.36
37.09
36.99
34.53
30.16
24.35
17.54
10.18
2.68
-4.61
-11.32
-17.06
-21.38
-23.84
-24.11
-22.17
-18.34
-13.28
-7.77
-2.45
2.34
6.65
10.68
14.56
18.08
20.62
21.36
19.63
15.39
9.47
3.53
-0.31
-0.16
5.06
15.25
29.24
45.19
61.23
75.89
88.22
97.73
104.12
107.21
106.95
103.53
97.48
89.66
81.01
72.30
63.95
55.94
48.00
39.72
30.87
21.44
11.66
1.91
-7.41
-16.07
-23.96
-31.17
-37.84
-44.18
-50.38
-56.64
-63.17
-70.09
-77.27
-84.20
-89.86
-92.86
-91.77
-85.58
-74.10
-58.18
-39.50
-20.14
-2.12
13.06
24.53
31.94
35.42
35.39
32.59
28.06
23.07
18.82
16.20
15.41
16.02
17.06
17.46
16.50
13.98
10.27
6.01
1.80
-2.11
-5.85
-9.96
-15.07
-21.68
-29.87
-39.14
-48.34
-55.82
-59.84
-58.97
-52.66
-41.38
-26.55
-10.09
6.05
20.33
31.72
39.62
43.74
44.06
40.93
35.21
28.19
21.37
15.98
12.64
11.11
10.55
9.80
7.96
4.67
0.13
-5.04
-10.25
-15.16
-19.91
-24.96
-30.97
-38.49
-47.69
-58.24
-69.10
-78.68
-85.07
-86.52
-81.99
-71.51
-56.21
-38.00
-18.98
-0.93
14.94
27.99
37.90
44.50
47.75
47.89
45.53
41.68
37.54
34.11
31.94
30.97
30.62
30.05
28.51
25.66
21.65
16.98
12.24
7.77
3.48
-1.07
-6.47
-13.15
-21.16
-30.07
-38.96
-46.52
-51.27
-51.80
-47.17
-37.26
-22.94
-5.84
11.99
28.69
43.02
54.38
62.69
68.04
70.48
70.05
66.98
61.89
55.73
49.68
44.63
40.99
38.49
36.34
33.61
29.61
24.18
17.67
10.76
4.10
-1.98
-7.55
-12.99
-18.81
-25.46
-33.22
-42.10
-51.76
-61.37
-69.54
-74.57
-74.76
-69.05
-57.43
-41.10
-22.14
-2.87
14.76
29.53
40.96
49.05
53.92
55.71
54.62
51.12
46.01
40.47
35.62
32.30
30.69
30.27
30.09
29.12
26.71
22.82
17.86
12.49
7.24
2.28
-2.54
-7.56
-13.07
-19.28
-26.32
-34.25
-42.91
-51.77
-59.70
-65.05
-66.09
-61.54
-51.17
-36.01
-18.03
0.44
17.38
31.51
42.31
49.76
53.95
54.98
53.07
48.73
42.91
36.86
31.76
28.37
26.71
26.13
25.63
24.26
21.51
17.42
12.46
7.24
2.23
-2.41
-6.84
-11.41
-16.57
-22.74
-30.12
-38.65
-47.74
-56.26
-62.63
-65.11
-62.35
-53.88
-40.32
-23.32
-5.09
12.24
27.02
38.31
45.77
49.42
49.50
46.49
41.17
34.69
28.41
23.53
20.78
20.08
20.61
21.16
20.59
18.32
14.48
9.76
4.98
0.70
-3.02
-6.57
-10.66
-15.89
-22.58
-30.54
-39.01
-46.73
-52.11
-53.64
-50.29
-41.86
-29.17
-13.85
2.12
16.91
29.17
38.20
43.73
45.83
44.74
41.00
35.43
29.17
23.42
19.11
16.63
15.71
15.55
15.21
13.94
11.45
7.88
3.70
-0.64
-4.88
-9.04
-13.35
-18.18
-23.87
-30.59
-38.15
-45.92
-52.74
-57.15
-57.71
-53.49
-44.42
-31.40
-16.11
-0.52
13.60
24.93
32.82
37.10
37.96
35.86
31.51
25.88
20.12
15.32
12.22
10.98
11.18
11.99
12.49
12.04
10.42
7.80
4.54
1.00
-2.65
-6.40
-10.38
-14.78
-19.78
-25.50
-31.81
-38.24
-43.86
-47.44
-47.72
-43.82
-35.67
-24.02
-10.31
3.71
16.40
26.45
33.09
36.03
35.41
31.77
26.04
19.38
13.01
7.92
4.63
3.10
2.76
2.82
2.55
1.54
-0.21
-2.46
-4.91
-7.43
-10.14
-13.34
-17.37
-22.46
-28.54
-35.13
-41.36
-46.02
-47.82
-45.76
-39.41
-29.17
-16.15
-2.01
11.50
22.87
31.05
35.52
36.26
33.72
28.72
22.38
15.87
10.19
5.94
3.20
1.59
0.48
-0.78
-2.63
-5.19
-8.34
-11.81
-15.39
-19.03
-22.97
-27.59
-33.32
-40.27
-48.01
-55.44
-60.95
-62.81
-59.75
-51.48
-38.78
-23.34
-7.27
7.47
19.42
27.89
32.73
34.24
32.95
29.58
24.94
19.90
15.24
11.50
8.85
7.08
5.68
4.08
1.85
-1.13
-4.68
-8.49
-12.31
-16.13
-20.26
-25.18
-31.35
-38.83
-47.16
-55.21
-61.38
-64.02
-61.84
-54.39
-42.18
-26.64
-9.72
6.63
20.87
32.03
39.74
44.06
45.27
43.82
40.37
35.75
30.94
26.78
23.79
21.92
20.67
19.27
17.03
13.64
9.25
4.31
-0.69
-5.51
-10.30
-15.55
-21.89
-29.80
-39.31
-49.80
-59.94
-67.95
-72.00
-70.74
-63.77
-51.81
-36.49
-19.83
-3.72
10.53
22.23
31.14
37.21
40.47
41.00
39.17
35.70
31.59
27.83
25.15
23.75
23.32
23.17
22.60
21.10
18.50
14.95
10.77
6.31
1.82
-2.64
-7.13
-11.85
-17.14
-23.30
-30.56
-38.74
-47.08
-54.21
-58.38
-57.93
-51.91
-40.46
-24.91
-7.33
10.06
25.43
37.73
46.58
52.12
54.66
54.58
52.28
48.36
43.63
39.01
35.33
33.03
32.04
31.82
31.53
30.35
27.77
23.66
18.33
12.27
6.02
-0.05
-5.79
-11.25
-16.56
-22.00
-27.85
-34.41
-41.92
-50.28
-58.86
-66.40
-71.12
-71.28
-65.75
-54.52
-38.85
-20.86
-2.97
12.83
25.40
34.35
39.87
42.33
42.21
40.05
36.60
32.80
29.59
27.66
27.19
27.85
28.94
29.69
29.60
28.43
26.22
23.12
19.32
14.95
10.19
5.17
0.08
-5.05
-10.30
-15.92
-22.21
-29.29
-36.94
-44.35
-50.22
-53.03
-51.43
-44.82
-33.60
-19.16
-3.48
11.45
24.12
33.73
40.09
43.33
43.70
41.53
37.44
32.32
27.32
23.51
21.54
21.34
22.23
23.15
23.16
21.78
19.02
15.32
11.21
7.06
2.93
-1.33
-6.00
-11.38
-17.72
-25.08
-33.21
-41.40
-48.46
-52.86
-53.08
-48.21
-38.27
-24.37
-8.36
7.66
21.92
33.29
41.31
45.97
47.51
46.29
42.81
37.80
32.23
27.15
23.41
21.47
21.19
21.93
22.76
22.79
21.40
18.45
14.20
9.19
4.00
-0.98
-5.71
-10.42
-15.56
-21.57
-28.73
-36.95
-45.67
-53.84
-60.00
-62.63
-60.52
-53.16
-41.01
-25.39
-8.19
8.64
23.51
35.46
44.14
49.62
52.22
52.36
50.55
47.40
43.63
39.93
36.89
34.83
33.69
33.07
32.35
30.88
28.22
24.26
19.22
13.52
7.63
1.88
-3.61
-8.84
-13.93
-19.04
-24.36
-30.15
-36.66
-43.93
-51.54
-58.43
-63.04
-63.73
-59.35
-49.73
-35.86
-19.59
-3.03
11.96
24.21
33.21
39.03
42.02
42.69
41.60
39.37
36.60
33.81
31.36
29.41
27.96
26.89
26.03
25.15
24.02
22.41
20.13
17.11
13.35
8.97
4.14
-0.94
-6.07
-11.13
-16.01
-20.79
-25.71
-31.14
-37.46
-44.79
-52.68
-60.13
-65.59
-67.49
-64.67
-56.83
-44.68
-29.74
-13.86
1.22
14.24
24.52
31.83
36.30
38.24
38.14
36.66
34.55
32.56
31.23
30.78
31.09
31.76
32.28
32.27
31.55
30.17
28.31
26.08
23.40
20.04
15.77
10.52
4.49
-1.90
-8.25
-14.31
-20.15
-26.01
-32.20
-38.97
-46.39
-54.20
-61.78
-68.06
-71.71
-71.43
-66.42
-56.78
-43.59
-28.62
-13.76
-0.55
10.16
18.14
23.51
26.53
27.45
26.63
24.60
22.09
19.83
18.39
17.98
18.41
19.23
19.92
20.09
19.56
18.30
16.36
13.77
10.52
6.66
2.29
-2.35
-7.01
-11.46
-15.62
-19.57
-23.54
-27.91
-33.01
-39.03
-45.69
-52.18
-57.18
-59.15
-56.84
-49.78
-38.49
-24.40
-9.39
4.73
16.63
25.61
31.48
34.39
34.67
32.76
29.24
24.87
20.49
16.89
14.66
13.98
14.59
15.88
16.99
17.16
15.87
13.05
8.99
4.22
-0.69
-5.35
-9.64
-13.71
-17.82
-22.30
-27.40
-33.24
-39.69
-46.31
-52.28
-56.43
-57.53
-54.58
-47.26
-36.04
-22.19
-7.41
6.61
18.59
27.79
33.98
37.25
37.83
36.05
32.46
27.77
22.93
18.82
16.09
14.93
14.98
15.50
15.60
14.59
12.20
8.55
4.12
-0.59
-5.24
-9.74
-14.28
-19.13
-24.60
-30.91
-38.08
-45.85
-53.57
-60.13
-64.10
-64.11
-59.29
-49.67
-36.20
-20.56
-4.55
10.25
22.77
32.38
38.80
41.91
41.88
39.17
34.68
29.56
24.97
21.78
20.29
20.15
20.57
20.59
19.44
16.79
12.84
8.14
3.38
-1.00
-4.92
-8.73
-13.06
-18.52
-25.53
-34.04
-43.48
-52.72
-60.25
-64.44
-64.04
-58.46
-48.05
-33.99
-18.01
-1.89
12.85
25.20
34.65
41.06
44.49
45.20
43.63
40.46
36.54
32.77
29.89
28.22
27.60
27.44
26.96
25.49
22.70
18.74
14.03
9.12
4.41
-0.01
-4.37
-9.15
-14.86
-21.89
-30.39
-40.11
-50.28
-59.57
-66.32
-68.84
-65.93
-57.31
-43.86
-27.37
-10.07
6.05
19.64
30.12
37.48
41.94
43.78
43.29
40.96
37.55
34.05
31.35
29.99
29.99
30.82
31.63
31.61
30.22
27.30
23.16
18.29
13.27
8.46
3.91
-0.66
-5.77
-11.98
-19.74
-29.13
-39.78
-50.73
-60.49
-67.28
-69.47
-66.08
-57.13
-43.76
-27.89
-11.66
3.08
15.13
23.99
29.64
32.36
32.58
30.85
27.88
24.51
21.59
19.77
19.37
20.23
21.82
23.34
24.01
23.23
20.80
16.89
11.93
6.42
0.77
-4.83
-10.36
-15.89
-21.55
-27.53
-33.95
-40.84
-47.90
-54.34
-58.89
-60.03
-56.46
-47.69
-34.27
-17.74
-0.16
16.46
30.58
41.34
48.40
51.80
51.78
48.89
44.00
38.33
33.18
29.64
28.20
28.70
30.34
32.03
32.73
31.76
28.96
24.60
19.24
13.44
7.62
1.91
-3.84
-9.92
-16.71
-24.44
-33.05
-41.96
-50.07
-55.87
-57.76
-54.60
-46.12
-33.05
-17.04
-0.12
15.78
29.14
38.99
44.82
46.54
44.49
39.53
33.01
26.54
21.54
18.81
18.26
19.02
19.80
19.48
17.52
14.04
9.66
5.12
0.87
-3.12
-7.33
-12.43
-19.01
-27.32
-36.98
-47.02
-55.89
-61.81
-63.15
-58.91
-49.01
-34.42
-16.87
1.59
19.01
33.98
45.63
53.66
58.07
59.17
57.49
53.86
49.32
44.99
41.71
39.83
39.08
38.67
37.67
35.37
31.54
26.50
20.83
15.12
9.67
4.36
-1.23
-7.70
-15.55
-24.95
-35.51
-46.12
-55.06
-60.38
-60.42
-54.38
-42.66
-26.77
-8.90
8.73
24.39
37.13
46.66
53.06
56.51
57.15
55.21
51.17
45.85
40.30
35.57
32.32
30.61
29.89
29.25
27.74
24.79
20.28
14.52
8.00
1.15
-5.84
-12.96
-20.33
-28.10
-36.40
-45.32
-54.86
-64.76
-74.28
-82.10
-86.46
-85.67
-78.66
-65.51
-47.60
-27.21
-6.86
11.40
26.32
37.53
45.21
49.75
51.59
51.12
48.89
45.61
42.12
39.18
37.25
36.32
35.97
35.60
34.63
32.72
29.85
26.14
21.82
17.06
11.91
6.41
0.59
-5.50
-11.79
-18.31
-25.20
-32.75
-41.18
-50.46
-59.95
-68.35
-73.87
-74.69
-69.59
-58.48
-42.48
-23.61
-4.21
13.73
28.89
40.73
49.19
54.45
56.82
56.72
54.70
51.53
48.01
44.80
42.28
40.51
39.33
38.42
37.48
36.20
34.29
31.49
27.65
22.74
16.95
10.59
4.06
-2.30
-8.27
-13.79
-18.95
-24.00
-29.33
-35.36
-42.37
-50.20
-58.05
-64.46
-67.65
-66.02
-58.82
-46.49
-30.59
-13.32
3.11
17.10
27.84
35.18
39.35
40.67
39.46
36.18
31.48
26.31
21.65
18.35
16.75
16.66
17.36
17.94
17.58
15.82
12.67
8.55
4.00
-0.47
-4.63
-8.53
-12.43
-16.71
-21.64
-27.44
-34.17
-41.63
-49.25
-56.02
-60.51
-61.26
-57.21
-48.22
-35.16
-19.78
-4.14
9.94
21.27
29.31
34.05
35.71
34.65
31.33
26.44
20.91
15.72
11.70
9.17
7.92
7.28
6.42
4.71
1.97
-1.56
-5.37
-8.99
-12.24
-15.30
-18.66
-22.87
-28.35
-35.20
-43.07
-51.14
-58.18
-62.76
-63.57
-59.79
-51.34
-38.99
-24.12
-8.36
6.76
20.05
30.70
38.21
42.32
43.06
40.83
36.46
31.10
25.93
21.84
19.18
17.74
16.85
15.75
13.77
10.61
6.37
1.46
-3.62
-8.45
-12.96
-17.43
-22.39
-28.38
-35.64
-43.82
-51.96
-58.60
-62.14
-61.31
-55.54
-45.14
-31.27
-15.57
0.27
14.90
27.43
37.45
44.72
49.13
50.64
49.42
46.02
41.36
36.55
32.46
29.53
27.60
26.07
24.25
21.65
18.20
14.11
9.75
5.39
1.09
-3.35
-8.31
-14.19
-21.30
-29.69
-38.99
-48.25
-56.10
-60.93
-61.35
-56.63
-46.99
-33.54
-17.97
-2.04
12.74
25.40
35.37
42.41
46.44
47.54
45.99
42.35
37.44
32.21
27.54
23.99
21.67
20.25
19.08
17.48
14.94
11.34
6.91
2.09
-2.75
-7.46
-12.11
-16.99
-22.42
-28.61
-35.60
-43.21
-50.98
-58.07
-63.34
-65.45
-63.19
-55.92
-43.84
-28.09
-10.42
7.21
23.14
36.29
46.19
52.79
56.25
56.90
55.14
51.51
46.75
41.67
37.01
33.25
30.56
28.73
27.33
25.77
23.53
20.26
15.84
10.42
4.34
-2.02
-8.29
-14.24
-19.75
-24.86
-29.78
-34.86
-40.54
-47.23
-54.90
-62.94
-69.98
-74.21
-73.87
-67.90
-56.46
-40.87
-23.26
-5.85
9.59
22.06
31.25
37.31
40.54
41.27
39.92
37.09
33.51
30.02
27.28
25.64
25.07
25.19
25.43
25.20
24.03
21.71
18.25
13.95
9.19
4.36
-0.33
-4.91
-9.54
-14.52
-20.10
-26.48
-33.71
-41.60
-49.66
-56.90
-61.99
-63.48
-60.31
-52.18
-39.82
-24.82
-9.15
5.35
17.35
26.23
31.88
34.50
34.44
32.13
28.19
23.45
18.84
15.24
13.17
12.60
12.98
13.49
13.33
12.05
9.63
6.45
3.01
-0.36
-3.56
-6.81
-10.47
-14.93
-20.42
-26.96
-34.26
-41.60
-47.93
-51.93
-52.42
-48.65
-40.57
-28.92
-15.05
-0.50
13.29
25.18
34.40
40.47
43.12
42.39
38.69
32.92
26.33
20.21
15.57
12.86
11.83
11.77
11.76
11.02
9.14
6.14
2.33
-1.89
-6.22
-10.59
-15.15
-20.18
-26.04
-32.90
-40.61
-48.52
-55.40
-59.73
-60.07
-55.52
-46.12
-32.85
-17.37
-1.43
13.50
26.44
36.87
44.51
49.18
50.79
49.56
46.09
41.38
36.53
32.43
29.49
27.54
25.99
24.19
21.63
18.21
14.16
9.91
5.82
2.05
-1.58
-5.44
-10.05
-15.84
-23.03
-31.52
-40.78
-49.86
-57.38
-61.79
-61.72
-56.36
-45.87
-31.38
-14.73
2.08
17.39
30.20
40.14
47.22
51.58
53.34
52.71
50.10
46.18
41.89
38.12
35.44
33.92
33.11
32.23
30.49
27.39
22.90
17.42
11.53
5.78
0.39
-4.74
-9.98
-15.71
-22.20
-29.57
-37.73
-46.38
-54.91
-62.31
-67.24
-68.27
-64.32
-55.10
-41.36
-24.70
-7.21
9.14
22.94
33.46
40.62
44.72
46.15
45.40
42.97
39.49
35.68
32.26
29.83
28.60
28.40
28.74
29.01
28.68
27.44
25.23
22.09
18.19
13.66
8.65
3.35
-2.01
-7.30
-12.43
-17.54
-22.91
-28.93
-35.92
-43.95
-52.59
-60.82
-67.05
-69.55
-66.91
-58.67
-45.52
-29.25
-12.14
3.66
16.69
26.37
32.76
36.27
37.36
36.49
34.20
31.18
28.17
25.81
24.36
23.71
23.44
23.10
22.42
21.35
19.95
18.22
16.03
13.15
9.40
4.77
-0.50
-6.04
-11.45
-16.44
-20.90
-25.01
-29.18
-33.96
-39.83
-46.89
-54.59
-61.62
-66.21
-66.62
-61.72
-51.50
-37.09
-20.50
-3.90
10.87
22.75
31.37
36.88
39.58
39.79
37.88
34.33
29.88
25.45
21.89
19.74
19.02
19.26
19.72
19.69
18.70
16.63
13.66
10.07
6.14
2.04
-2.17
-6.46
-10.83
-15.36
-20.21
-25.61
-31.69
-38.31
-44.82
-50.06
-52.63
-51.26
-45.32
-35.06
-21.59
-6.56
8.24
21.31
31.62
38.59
42.07
42.23
39.60
34.98
29.39
23.87
19.27
16.08
14.30
13.50
13.00
12.07
10.23
7.29
3.41
-1.03
-5.60
-10.04
-14.31
-18.59
-23.24
-28.66
-35.08
-42.38
-49.94
-56.56
-60.69
-60.82
-56.03
-46.29
-32.62
-16.73
-0.53
14.34
26.80
36.28
42.54
45.52
45.31
42.36
37.44
31.71
26.35
22.24
19.69
18.38
17.59
16.55
14.71
11.97
8.55
4.81
1.01
-2.81
-6.84
-11.39
-16.79
-23.23
-30.75
-39.05
-47.44
-54.80
-59.73
-60.85
-57.18
-48.56
-35.75
-20.28
-4.01
11.30
24.37
34.47
41.32
44.85
45.23
42.82
38.32
32.77
27.31
22.96
20.25
19.14
19.05
19.13
18.63
17.09
14.47
11.00
7.05
2.92
-1.28
-5.64
-10.49
-16.28
-23.44
-32.15
-42.10
-52.26
-60.98
-66.38
-66.81
-61.46
-50.61
-35.65
-18.53
-1.25
14.59
28.04
38.59
46.03
50.29
51.43
49.80
46.10
41.35
36.65
32.88
30.43
29.10
28.27
27.14
25.11
21.92
17.69
12.77
7.53
2.22
-3.12
-8.59
-14.39
-20.72
-27.79
-35.69
-44.33
-53.13
-61.03
-66.54
-68.14
-64.78
-56.26
-43.43
-27.92
-11.69
3.50
16.36
26.20
32.74
36.01
36.24
33.89
29.74
24.79
20.14
16.69
14.94
14.81
15.69
16.68
16.89
15.73
13.10
9.32
4.97
0.62
-3.40
-7.11
-10.81
-14.95
-19.98
-26.16
-33.43
-41.26
-48.66
-54.18
-56.31
-53.81
-46.19
-33.89
-18.25
-1.21
15.25
29.45
40.25
47.13
50.09
49.55
46.23
41.14
35.44
30.18
26.16
23.73
22.70
22.53
22.45
21.83
20.27
17.73
14.44
10.74
6.88
2.92
-1.32
-6.20
-12.13
-19.35
-27.68
-36.38
-44.16
-49.38
-50.52
-46.67
-37.84
-25.03
-9.91
5.58
19.68
31.05
38.85
42.76
42.86
39.68
34.20
27.67
21.39
16.37
13.07
11.34
10.56
9.98
9.01
7.35
5.06
2.32
-0.70
-4.05
-7.95
-12.81
-19.03
-26.74
-35.62
-44.68
-52.38
-56.93
-56.82
-51.30
-40.70
-26.33
-10.15
5.85
19.98
31.12
38.66
42.43
42.62
39.75
34.76
28.82
23.18
18.73
15.81
14.17
13.12
11.93
10.13
7.61
4.60
1.39
-1.93
-5.59
-10.08
-16.00
-23.69
-32.98
-43.07
-52.48
-59.34
-61.79
-58.46
-48.92
-33.88
-15.02
5.38
24.95
41.79
54.74
63.44
68.17
69.55
68.34
65.33
61.23
56.68
52.19
48.06
44.33
40.79
37.13
33.12
28.74
24.19
19.76
15.54
11.36
6.76
1.08
-6.17
-15.19
-25.57
-36.28
-45.66
-51.79
-52.96
-48.21
-37.70
-22.77
-5.58
11.54
26.69
38.69
47.10
51.88
53.18
51.26
46.54
39.79
32.09
24.62
18.40
13.97
11.25
9.75
8.69
7.37
5.34
2.44
-1.15
-5.16
-9.33
-13.59
-18.11
-23.25
-29.41
-36.77
-45.06
-53.41
-60.39
-64.36
-63.95
-58.56
-48.62
-35.51
-21.15
-7.36
4.60
14.18
21.37
26.30
28.96
29.13
26.66
21.78
15.29
8.43
2.50
-1.59
-3.68
-4.32
-4.51
-5.20
-7.01
-10.06
-14.06
-18.57
-23.18
-27.65
-31.89
-35.94
-39.94
-44.10
-48.66
-53.80
-59.48
-65.16
-69.79
-71.82
-69.68
-62.29
-49.53
-32.46
-12.95
6.80
24.87
39.98
51.53
59.40
63.68
64.65
62.75
58.75
53.72
48.83
45.00
42.64
41.59
41.18
40.59
39.12
36.44
32.64
28.10
23.32
18.69
14.34
10.11
5.71
0.76
-4.99
-11.68
-19.25
-27.45
-35.69
-42.98
-48.00
-49.33
-45.94
-37.52
-24.82
-9.41
6.65
21.49
33.68
42.44
47.52
49.01
47.28
42.99
37.11
30.86
25.49
21.85
20.20
20.04
20.40
20.24
18.84
16.07
12.31
8.24
4.40
0.99
-2.21
-5.74
-10.20
-16.08
-23.48
-32.06
-40.91
-48.72
-53.93
-55.19
-51.70
-43.60
-31.90
-18.28
-4.60
7.50
16.83
22.77
25.20
24.42
21.09
16.08
10.39
4.98
0.56
-2.49
-4.17
-4.75
-4.73
-4.66
-5.02
-6.11
-8.05
-10.77
-14.18
-18.26
-23.11
-28.82
-35.26
-41.79
-47.22
-50.11
-49.15
-43.64
-33.86
-20.98
-6.79
6.88
18.49
27.08
32.28
34.14
33.05
29.58
24.53
18.78
13.19
8.41
4.72
2.04
0.02
-1.76
-3.64
-5.79
-8.26
-11.09
-14.43
-18.53
-23.69
-30.12
-37.72
-45.89
-53.54
-59.17
-61.25
-58.62
-50.93
-38.77
-23.59
-7.24
8.45
22.06
32.76
40.24
44.56
45.99
44.96
42.06
38.05
33.76
29.85
26.68
24.21
22.13
20.01
17.59
14.84
11.90
8.89
5.82
2.43
-1.67
-6.90
-13.50
-21.31
-29.64
-37.26
-42.57
-43.97
-40.36
-31.59
-18.52
-2.85
13.41
28.46
41.04
50.52
56.75
59.83
60.04
57.81
53.77
48.73
43.49
38.69
34.59
31.06
27.73
24.17
20.11
15.51
10.54
5.45
0.35
-4.80
-10.23
-16.35
-23.54
-31.97
-41.35
-50.78
-58.78
-63.56
-63.60
-58.08
-47.29
-32.55
-15.79
0.99
16.19
28.84
38.55
45.25
49.05
50.12
48.72
45.40
40.87
36.04
31.73
28.46
26.30
24.87
23.47
21.42
18.28
14.05
9.08
3.94
-0.91
-5.28
-9.38
-13.66
-18.66
-24.78
-32.19
-40.69
-49.74
-58.38
-65.34
-69.21
-68.70
-63.06
-52.39
-37.75
-20.93
-3.95
11.40
24.02
33.49
39.90
43.53
44.75
43.88
41.42
38.00
34.39
31.32
29.21
28.10
27.64
27.24
26.32
24.52
21.74
18.12
13.93
9.47
4.92
0.41
-4.06
-8.53
-13.10
-17.95
-23.28
-29.38
-36.39
-44.14
-51.94
-58.58
-62.46
-62.10
-56.61
-46.06
-31.60
-15.12
1.27
15.77
27.25
35.33
40.17
42.15
41.76
39.49
35.91
31.71
27.67
24.45
22.37
21.35
20.89
20.39
19.29
17.32
14.46
10.87
6.78
2.40
-2.09
-6.53
-10.82
-14.90
-18.80
-22.68
-26.85
-31.64
-37.30
-43.75
-50.37
-55.94
-58.92
-57.85
-51.93
-41.40
-27.49
-12.12
2.78
15.68
25.71
32.61
36.45
37.52
36.17
32.96
28.60
24.00
20.07
17.49
16.52
16.89
17.92
18.80
18.83
17.66
15.38
12.34
8.97
5.56
2.19
-1.29
-5.09
-9.43
-14.44
-20.11
-26.21
-32.22
-37.27
-40.22
-39.93
-35.59
-27.09
-15.17
-1.27
12.81
25.39
35.29
41.94
45.26
45.53
43.24
38.99
33.55
27.80
22.59
18.51
15.65
13.63
11.76
9.36
6.02
1.77
-3.14
-8.37
-13.72
-19.29
-25.32
-32.10
-39.78
-48.29
-57.17
-65.65
-72.61
-76.84
-77.21
-73.10
-64.59
-52.57
-38.56
-24.27
-11.22
-0.51
7.31
12.09
14.01
13.47
11.12
7.83
4.49
1.91
0.49
0.21
0.62
1.08
1.00
0.08
-1.71
-4.11
-6.81
-9.62
-12.61
-16.12
-20.59
-26.32
-33.15
-40.33
-46.59
-50.40
-50.44
-46.02
-37.26
-25.07
-10.86
3.75
17.34
28.82
37.47
42.96
45.21
44.47
41.31
36.61
31.41
26.67
22.98
20.44
18.66
17.02
14.94
12.12
8.60
4.64
0.53
-3.58
-7.76
-12.30
-17.56
-23.90
-31.40
-39.67
-47.70
-53.99
-56.87
-55.03
-48.02
-36.43
-21.73
-5.84
9.47
22.88
33.63
41.36
45.90
47.28
45.75
42.01
37.08
32.15
28.13
25.41
23.73
22.44
20.81
18.38
15.09
11.19
7.08
3.06
-0.77
-4.57
-8.68
-13.56
-19.62
-26.98
-35.30
-43.59
-50.38
-53.97
-52.96
-46.76
-35.75
-21.27
-5.17
10.69
24.85
36.41
44.95
50.29
52.45
51.56
48.09
42.87
37.05
31.78
27.85
25.43
24.08
22.94
21.12
18.08
13.77
8.58
3.03
-2.39
-7.49
-12.35
-17.28
-22.64
-28.73
-35.66
-43.26
-50.93
-57.56
-61.73
-61.95
-57.26
-47.53
-33.72
-17.54
-0.99
14.20
26.94
36.77
43.61
47.51
48.53
46.92
43.25
38.49
33.84
30.31
28.41
28.01
28.41
28.70
28.11
26.22
23.09
19.04
14.48
9.75
4.97
0.13
-4.91
-10.33
-16.33
-23.09
-30.61
-38.52
-45.92
-51.50
-53.72
-51.37
-43.99
-32.18
-17.42
-1.67
13.19
25.75
35.22
41.31
44.08
43.79
40.95
36.35
31.01
26.06
22.44
20.56
20.23
20.68
20.95
20.22
18.16
14.98
11.20
7.43
4.01
0.93
-2.12
-5.63
-10.07
-15.72
-22.62
-30.38
-38.17
-44.75
-48.65
-48.56
-43.75
-34.36
-21.48
-6.86
7.52
19.91
29.11
34.59
36.40
35.00
31.13
25.71
19.77
14.30
10.09
7.47
6.29
5.97
5.71
4.88
3.16
0.64
-2.32
-5.39
-8.39
-11.45
-14.89
-19.10
-24.40
-30.74
-37.61
-43.99
-48.49
-49.68
-46.59
-39.03
-27.71
-14.10
0.04
13.06
23.79
31.50
35.96
37.21
35.61
31.80
26.69
21.25
16.32
12.39
9.49
7.36
5.59
3.89
2.12
0.24
-1.82
-4.26
-7.35
-11.38
-16.50
-22.64
-29.50
-36.53
-42.92
-47.67
-49.67
-47.97
-42.04
-32.02
-18.85
-4.08
10.44
23.03
32.47
38.20
40.29
39.27
35.97
31.28
26.08
21.02
16.54
12.74
9.52
6.61
3.76
0.79
-2.40
-5.84
-9.60
-13.74
-18.41
-23.80
-30.06
-37.28
-45.26
-53.39
-60.57
-65.31
-66.13
-62.02
-52.85
-39.49
-23.55
-6.93
8.64
21.96
32.29
39.31
42.98
43.56
41.61
38.04
33.92
30.21
27.52
25.86
24.81
23.74
22.11
19.67
16.50
12.81
8.79
4.48
-0.27
-5.70
-12.09
-19.55
-27.98
-36.84
-45.09
-51.28
-53.82
-51.52
-44.05
-32.15
-17.50
-2.14
12.14
24.17
33.46
39.99
43.89
45.31
44.49
41.87
38.23
34.46
31.28
29.01
27.49
26.21
24.60
22.30
19.26
15.65
11.73
7.65
3.39
-1.30
-6.83
-13.57
-21.64
-30.64
-39.51
-46.65
-50.29
-49.03
-42.36
-30.88
-16.20
-0.45
14.29
26.50
35.40
40.86
43.19
42.90
40.64
37.10
33.02
29.12
25.92
23.61
21.98
20.56
18.82
16.41
13.31
9.75
6.04
2.34
-1.45
-5.71
-10.93
-17.43
-25.10
-33.22
-40.45
-45.13
-45.75
-41.42
-32.25
-19.33
-4.46
10.38
23.39
33.33
39.54
41.94
40.89
37.19
31.88
26.09
20.76
16.48
13.34
11.05
9.13
7.16
4.93
2.39
-0.39
-3.36
-6.57
-10.20
-14.50
-19.75
-26.10
-33.38
-40.91
-47.48
-51.52
-51.57
-46.68
-36.91
-23.36
-7.87
7.38
20.53
30.31
36.18
38.29
37.29
34.05
29.54
24.68
20.21
16.67
14.25
12.87
12.16
11.57
10.54
8.70
5.94
2.46
-1.41
-5.47
-9.77
-14.65
-20.48
-27.32
-34.63
-41.18
-45.30
-45.36
-40.35
-30.29
-16.33
-0.44
15.10
28.35
38.08
43.85
45.87
44.71
41.11
35.86
29.84
23.94
18.96
15.33
13.03
11.55
10.14
8.10
5.08
1.15
-3.30
-7.81
-12.12
-16.23
-20.49
-25.38
-31.34
-38.45
-46.26
-53.63
-58.90
-60.39
-56.89
-48.18
-35.25
-19.94
-4.45
9.35
20.21
27.62
31.55
32.24
30.11
25.85
20.40
14.92
10.53
7.87
6.98
7.28
7.87
7.93
7.03
5.15
2.59
-0.34
-3.45
-6.79
-10.56
-15.06
-20.49
-26.86
-33.74
-40.26
-45.09
-46.73
-43.99
-36.45
-24.70
-10.32
4.58
17.93
28.19
34.62
37.20
36.45
33.19
28.39
23.01
17.90
13.70
10.68
8.74
7.50
6.48
5.32
3.83
2.00
-0.11
-2.47
-5.17
-8.45
-12.61
-17.91
-24.34
-31.47
-38.31
-43.41
-45.19
-42.48
-34.93
-23.26
-9.06
5.64
18.94
29.46
36.50
39.95
40.14
37.68
33.41
28.28
23.22
18.97
15.87
13.83
12.40
11.01
9.23
6.89
4.05
0.89
-2.51
-6.32
-10.88
-16.61
-23.74
-32.09
-40.90
-48.87
-54.40
-55.93
-52.47
-43.86
-30.97
-15.48
0.53
15.07
26.69
34.62
38.74
39.43
37.35
33.34
28.30
23.10
18.44
14.71
11.96
9.92
8.18
6.32
4.04
1.25
-2.06
-5.82
-10.06
-14.89
-20.57
-27.39
-35.45
-44.48
-53.58
-61.27
-65.77
-65.56
-59.87
-49.02
-34.34
-17.75
-1.27
13.45
25.35
33.92
39.08
41.05
40.26
37.39
33.29
28.93
25.15
22.46
20.94
20.16
19.42
17.99
15.40
11.60
6.93
1.94
-2.92
-7.54
-12.20
-17.48
-24.03
-32.16
-41.64
-51.54
-60.25
-65.87
-66.68
-61.75
-51.23
-36.42
-19.36
-2.22
13.27
26.10
35.95
42.88
47.06
48.59
47.66
44.77
40.78
36.77
33.75
32.27
32.18
32.79
33.14
32.37
30.11
26.41
21.70
16.49
11.17
5.95
0.87
-4.08
-8.99
-13.97
-19.26
-25.27
-32.35
-40.57
-49.40
-57.57
-63.23
-64.45
-59.91
-49.41
-34.05
-15.89
2.65
19.49
33.25
43.42
50.06
53.57
54.45
53.27
50.70
47.49
44.42
42.08
40.73
40.17
39.92
39.39
38.20
36.21
33.52
30.29
26.53
22.14
17.02
11.16
4.80
-1.68
-7.93
-13.81
-19.45
-25.20
-31.53
-38.84
-47.24
-56.33
-65.09
-71.93
-75.04
-72.93
-65.02
-51.87
-35.14
-17.04
0.26
15.09
26.54
34.27
38.45
39.51
38.15
35.26
31.80
28.63
26.35
25.19
25.00
25.45
26.11
26.57
26.52
25.75
24.13
21.60
18.25
14.21
9.75
5.10
0.45
-4.09
-8.51
-12.91
-17.49
-22.51
-28.25
-34.86
-42.09
-49.14
-54.66
-56.98
-54.68
-47.12
-34.80
-19.22
-2.50
13.27
26.54
36.49
42.93
46.02
46.08
43.60
39.26
34.02
29.00
25.24
23.36
23.38
24.68
26.21
26.90
26.02
23.43
19.57
15.15
10.87
7.09
3.72
0.34
-3.63
-8.65
-14.99
-22.62
-31.15
-39.81
-47.38
-52.39
-53.39
-49.42
-40.40
-27.26
-11.76
4.01
18.24
29.69
37.86
42.78
44.71
43.98
40.99
36.33
30.86
25.60
21.54
19.24
18.59
18.86
18.94
17.86
15.15
10.96
5.87
0.59
-4.42
-9.09
-13.70
-18.75
-24.71
-31.92
-40.37
-49.59
-58.51
-65.56
-68.99
-67.40
-60.24
-48.10
-32.57
-15.73
0.47
14.65
26.17
34.85
40.78
43.98
44.54
42.68
39.01
34.47
30.18
27.03
25.43
25.12
25.27
24.92
23.30
20.17
15.84
10.97
6.20
1.86
-2.14
-6.29
-11.22
-17.47
-25.27
-34.47
-44.42
-54.05
-61.92
-66.47
-66.45
-61.19
-51.00
-37.02
-21.02
-4.89
9.79
21.99
31.23
37.45
40.82
41.56
39.97
36.53
31.94
27.06
22.78
19.75
18.13
17.59
17.39
16.71
14.95
11.93
7.85
3.12
-1.86
-6.84
-11.76
-16.68
-21.79
-27.29
-33.49
-40.59
-48.58
-56.95
-64.58
-69.85
-71.05
-66.98
-57.41
-43.28
-26.45
-9.09
6.85
20.14
30.33
37.50
42.02
44.24
44.51
43.21
40.89
38.19
35.79
34.18
33.50
33.56
33.91
33.99
33.35
31.72
29.05
25.43
21.07
16.17
10.94
5.51
-0.01
-5.60
-11.33
-17.35
-23.95
-31.38
-39.75
-48.68
-57.24
-63.90
-66.89
-64.76
-56.96
-44.13
-27.98
-10.78
5.28
18.68
28.70
35.35
39.00
40.19
39.48
37.45
34.75
32.02
29.80
28.41
27.89
27.99
28.28
28.29
27.57
25.85
23.02
19.14
14.43
9.17
3.65
-1.88
-7.26
-12.44
-17.50
-22.67
-28.31
-34.80
-42.30
-50.50
-58.45
-64.65
-67.39
-65.28
-57.84
-45.65
-30.27
-13.68
2.20
16.00
26.96
34.74
39.26
40.56
38.88
34.83
29.41
23.88
19.42
16.76
15.97
16.46
17.29
17.48
16.42
14.00
10.51
6.48
2.40
-1.51
-5.31
-9.32
-13.97
-19.63
-26.48
-34.31
-42.51
-50.01
-55.47
-57.50
-55.12
-48.06
-36.87
-22.88
-7.78
6.73
19.23
28.74
34.70
36.91
35.64
31.58
25.86
19.82
14.69
11.23
9.50
8.95
8.66
7.78
5.83
2.80
-0.89
-4.75
-8.37
-11.66
-14.90
-18.65
-23.57
-30.13
-38.36
-47.61
-56.51
-63.28
-66.16
-63.98
-56.55
-44.64
-29.83
-13.92
1.43
14.95
25.84
33.59
37.98
39.01
37.03
32.78
27.37
22.00
17.66
14.83
13.33
12.51
11.52
9.76
7.06
3.69
0.11
-3.37
-6.78
-10.54
-15.28
-21.56
-29.61
-39.11
-49.09
-58.04
-64.19
-65.99
-62.48
-53.63
-40.40
-24.40
-7.48
8.68
22.89
34.43
42.97
48.34
50.57
49.92
46.96
42.64
38.00
34.05
31.31
29.77
28.83
27.68
25.58
22.22
17.76
12.66
7.44
2.39
-2.60
-7.99
-14.36
-22.21
-31.67
-42.25
-52.79
-61.61
-66.86
-67.02
-61.40
-50.38
-35.33
-18.17
-0.85
15.09
28.74
39.71
47.89
53.29
55.95
56.03
53.94
50.40
46.34
42.67
40.02
38.58
37.98
37.52
36.40
33.98
30.05
24.84
18.87
12.73
6.85
1.30
-4.14
-9.87
-16.29
-23.68
-32.20
-41.78
-52.10
-62.36
-71.27
-77.14
-78.28
-73.52
-62.76
-47.04
-28.31
-8.86
9.35
25.01
37.57
46.95
53.30
56.80
57.76
56.68
54.35
51.74
49.68
48.65
48.57
48.91
48.89
47.89
45.61
42.22
38.17
33.98
29.91
25.93
21.72
16.90
11.24
4.83
-2.01
-8.76
-15.00
-20.56
-25.54
-30.30
-35.38
-41.35
-48.66
-57.42
-67.13
-76.61
-84.07
-87.50
-85.30
-76.82
-62.63
-44.38
-24.30
-4.49
13.49
28.86
41.36
51.01
57.86
61.93
63.38
62.68
60.60
58.10
56.00
54.80
54.46
54.55
54.40
53.48
51.50
48.50
44.78
40.66
36.36
31.88
27.13
21.92
16.16
9.89
3.27
-3.48
-10.16
-16.58
-22.64
-28.33
-33.70
-38.93
-44.29
-50.09
-56.58
-63.79
-71.30
-78.11
-82.77
-83.64
-79.45
-69.68
-54.92
-36.69
-17.02
2.10
19.12
33.14
43.75
50.92
54.78
55.73
54.37
51.60
48.48
45.94
44.56
44.40
45.04
45.74
45.82
44.87
42.88
40.14
37.00
33.69
30.14
26.09
21.26
15.56
9.21
2.66
-3.58
-9.20
-14.13
-18.59
-22.99
-27.83
-33.47
-40.05
-47.21
-54.08
-59.30
-61.33
-58.91
-51.49
-39.49
-24.21
-7.46
8.91
23.42
35.16
43.71
49.00
51.17
50.57
47.75
43.51
38.85
34.72
31.85
30.50
30.48
31.15
31.70
31.38
29.71
26.59
22.26
17.16
11.79
6.52
1.48
-3.41
-8.35
-13.57
-19.29
-25.63
-32.60
-40.05
-47.50
-54.05
-58.38
-59.12
-55.18
-46.32
-33.33
-17.85
-1.92
12.62
24.55
33.33
38.93
41.62
41.74
39.72
36.15
31.79
27.48
23.90
21.47
20.17
19.68
19.45
18.89
17.55
15.14
11.65
7.27
2.27
-3.03
-8.40
-13.70
-18.89
-23.93
-28.90
-33.98
-39.51
-45.87
-53.17
-60.93
-67.97
-72.57
-72.98
-68.11
-57.93
-43.56
-26.89
-9.96
5.54
18.57
28.63
35.66
39.82
41.40
40.85
38.73
35.72
32.47
29.47
27.06
25.37
24.39
23.92
23.71
23.37
22.50
20.77
17.97
14.12
9.42
4.19
-1.26
-6.65
-11.82
-16.74
-21.51
-26.39
-31.79
-38.08
-45.42
-53.45
-61.14
-66.95
-69.20
-66.65
-58.97
-46.92
-32.05
-16.30
-1.38
11.54
21.89
29.53
34.56
37.14
37.58
36.35
34.16
31.74
29.72
28.39
27.66
27.19
26.59
25.64
24.38
22.99
21.57
20.07
18.18
15.51
11.82
7.14
1.80
-3.73
-9.07
-13.99
-18.53
-22.89
-27.39
-32.33
-38.01
-44.56
-51.78
-58.98
-64.95
-68.21
-67.39
-61.79
-51.60
-37.92
-22.42
-6.84
7.39
19.32
28.48
34.68
38.01
38.74
37.40
34.72
31.54
28.64
26.53
25.29
24.70
24.29
23.58
22.29
20.33
17.83
14.89
11.54
7.66
3.12
-2.15
-8.00
-14.12
-20.12
-25.71
-30.76
-35.38
-39.81
-44.44
-49.60
-55.53
-62.14
-68.86
-74.62
-77.97
-77.48
-72.23
-62.24
-48.45
-32.57
-16.49
-1.81
10.49
19.95
26.55
30.45
31.89
31.28
29.17
26.28
23.38
21.09
19.74
19.33
19.54
19.88
19.81
18.90
16.96
14.06
10.52
6.71
2.84
-1.05
-5.15
-9.64
-14.60
-19.98
-25.71
-31.75
-38.06
-44.43
-50.26
-54.50
-55.83
-53.16
-46.07
-35.10
-21.62
-7.41
5.88
17.04
25.40
30.70
32.88
32.12
28.83
23.79
18.06
12.78
8.78
6.41
5.42
5.13
4.75
3.71
1.78
-0.93
-4.14
-7.54
-10.95
-14.41
-18.10
-22.30
-27.27
-33.14
-39.71
-46.34
-51.97
-55.26
-54.98
-50.39
-41.52
-29.19
-14.80
0.07
13.90
25.46
33.89
38.69
39.80
37.68
33.21
27.59
22.00
17.32
13.89
11.60
9.96
8.42
6.53
4.07
1.01
-2.52
-6.40
-10.61
-15.26
-20.59
-26.90
-34.33
-42.69
-51.33
-59.07
-64.45
-66.05
-62.89
-54.85
-42.64
-27.68
-11.74
3.51
16.75
27.11
34.16
37.85
38.41
36.42
32.74
28.35
24.16
20.78
18.40
16.76
15.36
13.66
11.33
8.30
4.71
0.79
-3.32
-7.69
-12.65
-18.63
-26.00
-34.78
-44.44
-53.83
-61.28
-65.04
-63.74
-56.87
-44.95
-29.40
-12.10
5.04
20.49
33.26
42.84
49.10
52.18
52.46
50.49
47.00
42.80
38.60
34.87
31.77
29.08
26.37
23.19
19.26
14.63
9.67
4.82
0.37
-3.77
-8.10
-13.37
-20.24
-28.97
-39.14
-49.55
-58.36
-63.55
-63.41
-57.17
-45.24
-29.16
-11.11
6.74
22.81
36.29
47.01
55.04
60.45
63.17
63.19
60.78
56.65
51.82
47.35
44.00
41.96
40.83
39.85
38.22
35.36
31.15
25.83
19.89
13.75
7.69
1.74
-4.32
-10.80
-18.06
-26.44
-36.14
-46.97
-58.23
-68.49
-75.89
-78.55
-75.19
-65.66
-51.03
-33.29
-14.69
2.84
18.10
30.55
40.12
46.91
51.07
52.86
52.76
51.47
49.75
48.25
47.28
46.76
46.39
45.81
44.81
43.38
41.64
39.68
37.35
34.32
30.16
24.59
17.70
9.95
2.00
-5.52
-12.32
-18.47
-24.44
-30.86
-38.32
-47.18
-57.34
-68.08
-77.98
-85.12
-87.48
-83.49
-72.59
-55.53
-34.15
-10.95
11.61
31.58
47.85
59.98
68.08
72.52
73.84
72.76
70.09
66.77
63.63
61.31
60.05
59.71
59.86
59.98
59.61
58.45
56.36
53.31
49.34
44.54
39.05
33.07
26.85
20.67
14.71
9.07
3.66
-1.80
-7.76
-14.67
-22.69
-31.37
-39.53
-45.43
-47.26
-43.77
-34.80
-21.42
-5.54
10.61
25.13
36.79
45.04
49.81
51.29
49.79
45.77
39.94
33.21
26.66
21.25
17.56
15.63
14.93
14.62
13.82
11.90
8.70
4.43
-0.43
-5.44
-10.32
-15.01
-19.62
-24.29
-29.20
-34.53
-40.45
-46.96
-53.77
-60.10
-64.67
-66.03
-62.94
-54.89
-42.36
-26.71
-9.74
6.72
21.26
33.03
41.59
46.84
48.84
47.90
44.58
39.79
34.60
30.09
27.01
25.54
25.30
25.47
25.15
23.68
20.83
16.80
12.01
6.94
1.81
-3.37
-8.86
-15.01
-22.17
-30.54
-40.05
-50.21
-60.01
-68.06
-72.82
-72.99
-68.02
-58.27
-45.00
-30.02
-15.19
-1.98
8.77
16.84
22.37
25.61
26.82
26.24
24.23
21.34
18.32
15.98
14.87
15.18
16.56
18.35
19.79
20.27
19.58
17.79
15.31
12.58
9.98
7.71
5.74
3.79
1.47
-1.76
-6.33
-12.45
-19.88
-27.86
-35.06
-39.94
-41.06
-37.60
-29.60
-18.05
-4.57
9.02
21.20
31.05
38.27
43.01
45.61
46.39
45.64
43.68
40.91
37.80
34.83
32.23
30.00
27.88
25.49
22.56
18.95
14.71
9.93
4.65
-1.20
-7.67
-14.71
-22.09
-29.40
-36.19
-42.16
-47.26
-51.79
-56.27
-61.26
-67.09
-73.61
-80.09
-85.23
-87.49
-85.53
-78.63
-67.00
-51.80
-34.74
-17.64
-1.92
11.59
22.56
30.98
36.87
40.32
41.54
41.01
39.41
37.55
36.02
35.07
34.55
34.11
33.42
32.36
31.04
29.67
28.32
26.84
24.86
21.95
17.85
12.59
6.54
0.29
-5.60
-10.75
-15.09
-18.87
-22.51
-26.56
-31.49
-37.56
-44.70
-52.32
-59.35
-64.31
-65.75
-62.62
-54.73
-42.78
-28.27
-13.03
1.32
13.68
23.62
31.16
36.55
40.02
41.71
41.75
40.42
38.17
35.60
33.33
31.77
30.98
30.65
30.24
29.13
26.89
23.35
18.67
13.22
7.37
1.39
-4.63
-10.71
-16.87
-23.11
-29.44
-35.91
-42.67
-49.79
-57.06
-63.81
-68.94
-71.14
-69.38
-63.32
-53.46
-41.04
-27.58
-14.54
-2.95
6.55
13.69
18.41
20.72
20.85
19.25
16.61
13.80
11.58
10.46
10.49
11.33
12.38
13.04
12.90
11.80
9.81
7.13
4.00
0.58
-3.03
-6.84
-10.95
-15.57
-20.92
-27.05
-33.74
-40.24
-45.42
-47.94
-46.64
-40.98
-31.26
-18.58
-4.55
9.18
21.29
31.01
38.07
42.57
44.67
44.57
42.48
38.77
34.06
29.20
25.04
22.12
20.47
19.59
18.68
17.03
14.23
10.35
5.72
0.76
-4.24
-9.14
-14.01
-18.97
-24.25
-30.15
-36.92
-44.67
-53.01
-61.04
-67.35
-70.42
-69.04
-62.76
-52.06
-38.18
-22.75
-7.37
6.70
18.65
28.10
34.97
39.36
41.48
41.65
40.28
37.91
35.11
32.48
30.45
29.22
28.66
28.37
27.83
26.55
24.25
20.91
16.70
11.90
6.72
1.34
-4.17
-9.80
-15.62
-21.81
-28.64
-36.40
-45.12
-54.38
-63.10
-69.73
-72.57
-70.36
-62.73
-50.40
-34.98
-18.48
-2.75
10.96
22.05
30.48
36.40
40.06
41.66
41.53
40.12
38.03
35.90
34.13
32.81
31.79
30.74
29.43
27.81
25.95
23.92
21.69
19.06
15.78
11.68
6.83
1.48
-4.01
-9.39
-14.57
-19.71
-25.08
-31.05
-37.89
-45.68
-54.10
-62.33
-69.01
-72.49
-71.34
-64.80
-53.20
-37.86
-20.79
-4.00
10.98
23.33
32.82
39.55
43.78
45.80
46.06
45.14
43.73
42.44
41.60
41.23
41.08
40.80
40.14
38.96
37.21
34.87
31.85
28.05
23.38
17.87
11.68
5.09
-1.58
-8.03
-14.09
-19.75
-25.25
-31.02
-37.54
-45.12
-53.59
-62.17
-69.40
-73.53
-73.04
-67.17
-56.30
-41.84
-25.77
-10.03
3.90
15.26
23.86
29.75
33.06
33.95
32.75
30.04
26.65
23.46
21.15
20.04
20.05
20.76
21.60
22.04
21.66
20.27
17.92
14.80
11.26
7.53
3.78
-0.01
-3.96
-8.26
-13.12
-18.76
-25.26
-32.49
-39.93
-46.58
-51.09
-52.10
-48.68
-40.66
-28.81
-14.54
0.40
14.41
26.26
35.21
40.85
43.10
42.18
38.64
33.35
27.45
22.03
17.92
15.43
14.33
13.99
13.64
12.65
10.72
7.90
4.52
0.95
-2.59
-6.09
-9.79
-14.09
-19.36
-25.72
-32.91
-40.17
-46.32
-49.99
-50.02
-45.78
-37.36
-25.61
-11.83
2.43
15.69
26.71
34.60
38.86
39.45
36.87
32.07
26.26
20.61
15.98
12.65
10.47
8.87
7.24
5.08
2.23
-1.24
-5.07
-9.01
-13.03
-17.36
-22.46
-28.78
-36.55
-45.54
-54.87
-63.16
-68.72
-70.06
-66.27
-57.35
-44.24
-28.57
-12.25
3.01
16.01
26.17
33.34
37.63
39.22
38.33
35.32
30.83
25.85
21.50
18.80
18.26
19.72
22.40
25.15
26.96
27.27
26.12
24.03
21.65
19.46
17.55
15.77
13.77
11.32
8.42
5.21
1.92
-1.32
-4.54
-8.01
-12.14
-17.41
-24.14
-32.37
-41.59
-50.76
-58.42
-62.99
-63.19
-58.37
-48.73
-35.29
-19.54
-3.14
12.42
26.04
36.99
44.80
49.26
50.34
48.33
43.94
38.26
32.55
27.86
24.68
22.81
21.49
19.82
17.18
13.47
9.04
4.50
0.24
-3.65
-7.46
-11.70
-16.83
-23.21
-30.89
-39.61
-48.59
-56.59
-62.02
-63.24
-59.15
-49.55
-35.30
-18.12
-0.08
16.95
31.68
43.44
52.09
57.72
60.56
60.89
59.15
55.96
52.10
48.31
45.19
43.01
41.70
40.89
40.07
38.68
36.31
32.75
28.07
22.50
16.42
10.15
3.96
-2.08
-8.02
-14.03
-20.35
-27.23
-34.90
-43.34
-52.16
-60.37
-66.49
-68.85
-66.10
-57.71
-44.20
-27.10
-8.45
9.66
25.62
38.41
47.63
53.31
55.82
55.72
53.78
50.90
47.94
45.54
44.00
43.23
42.79
42.17
40.99
39.10
36.62
33.70
30.38
26.53
21.88
16.21
9.55
2.22
-5.28
-12.44
-18.96
-24.82
-30.32
-35.89
-42.00
-48.99
-56.91
-65.36
-73.39
-79.58
-82.34
-80.34
-72.97
-60.59
-44.53
-26.68
-9.06
6.68
19.52
29.07
35.36
38.74
39.67
38.73
36.61
34.07
31.80
30.34
29.86
30.16
30.80
31.23
31.07
30.16
28.57
26.41
23.73
20.48
16.54
11.91
6.75
1.37
-3.88
-8.77
-13.34
-17.90
-22.95
-28.99
-36.21
-44.27
-52.09
-58.10
-60.59
-58.27
-50.78
-38.87
-24.16
-8.64
5.86
18.12
27.51
33.93
37.49
38.40
36.97
33.71
29.32
24.70
20.76
18.08
16.88
16.87
17.42
17.77
17.33
15.81
13.30
10.13
6.67
3.15
-0.41
-4.20
-8.47
-13.44
-19.25
-25.93
-33.29
-40.89
-47.88
-53.09
-55.19
-53.04
-46.17
-34.98
-20.74
-5.27
9.57
22.35
32.26
39.06
42.92
44.15
43.06
40.02
35.58
30.51
25.73
22.08
20.05
19.57
20.02
20.49
20.07
18.27
15.11
11.04
6.67
2.49
-1.31
-4.90
-8.65
-13.00
-18.31
-24.71
-32.06
-39.80
-46.92
-52.02
-53.60
-50.44
-42.10
-29.18
-13.22
3.71
19.59
32.92
42.95
49.49
52.78
53.14
50.99
46.84
41.34
35.33
29.62
24.80
21.08
18.23
15.65
12.68
8.83
3.96
-1.71
-7.72
-13.62
-19.11
-24.18
-29.06
-34.08
-39.51
-45.48
-52.05
-59.15
-66.53
-73.68
-79.65
-83.18
-82.95
-78.03
-68.29
-54.53
-38.33
-21.53
-5.77
7.85
18.85
27.17
32.91
36.29
37.57
37.18
35.72
33.95
32.59
32.11
32.64
33.83
35.09
35.72
35.20
33.28
30.06
25.78
20.82
15.44
9.83
4.05
-1.85
-7.85
-14.01
-20.51
-27.65
-35.68
-44.57
-53.73
-61.89
-67.37
-68.58
-64.60
-55.58
-42.76
-28.09
-13.55
-0.68
9.68
17.33
22.38
25.06
25.60
24.28
21.52
17.97
14.34
11.36
9.51
8.88
9.23
9.97
10.42
10.03
8.62
6.35
3.65
0.96
-1.46
-3.58
-5.63
-7.88
-10.59
-13.91
-17.92
-22.51
-27.36
-31.77
-34.69
-34.86
-31.18
-23.12
-10.95
4.25
20.83
37.02
51.32
62.73
70.78
75.45
77.00
75.94
72.98
69.09
65.25
62.30
60.70
60.29
60.40
60.10
58.59
55.48
50.88
45.22
39.01
32.61
26.06
19.16
11.60
3.07
-6.59
-17.27
-28.46
-39.26
-48.46
-54.79
-57.28
-55.53
-49.90
-41.40
-31.44
-21.53
-12.94
-6.66
-3.22
-2.81
-5.23
-9.96
-16.22
-23.02
-29.42
-34.69
-38.41
-40.63
-41.71
-42.22
-42.73
-43.63
-45.06
-46.94
-49.10
-51.43
-53.96
-56.96
-60.76
-65.61
-71.33
-77.20
-81.96
-84.06
-82.15
-75.53
-64.37
-49.76
-33.32
-16.85
-1.91
10.37
19.30
24.66
26.57
25.54
22.37
18.09
13.72
10.06
7.51
6.02
5.15
4.35
3.17
1.45
-0.72
-3.09
-5.49
-7.99
-10.90
-14.68
-19.75
-26.23
-33.78
-41.56
-48.21
-52.16
-51.95
-46.66
-36.21
-21.46
-3.96
14.42
31.95
47.34
59.82
68.98
74.72
77.11
76.49
73.50
69.10
64.30
59.99
56.57
53.96
51.66
49.02
45.57
41.19
36.09
30.63
25.08
19.48
13.57
6.91
-0.90
-10.05
-20.33
-31.00
-40.82
-48.29
-51.89
-50.65
-44.35
-33.77
-20.34
-5.81
8.25
20.69
30.87
38.41
43.05
44.67
43.29
39.36
33.75
27.60
22.05
17.86
15.25
13.88
13.05
11.99
10.14
7.26
3.47
-0.89
-5.45
-9.94
-14.35
-18.88
-23.91
-29.86
-36.98
-45.16
-53.77
-61.67
-67.23
-68.80
-65.11
-55.69
-41.11
-22.83
-2.86
16.80
34.56
49.45
61.06
69.38
74.60
76.94
76.77
74.53
70.87
66.48
62.02
57.93
54.33
51.13
48.01
44.70
40.95
36.68
31.84
26.47
20.63
14.39
7.97
1.55
-4.65
-10.56
-16.30
-22.21
-28.72
-36.10
-44.23
-52.34
-59.10
-62.88
-62.25
-56.48
-45.84
-31.62
-15.68
0.00
13.84
24.84
32.65
37.37
39.34
39.08
37.21
34.43
31.45
28.87
27.10
26.28
26.26
26.68
27.11
27.11
26.36
24.69
22.08
18.64
14.60
10.24
5.79
1.43
-2.82
-7.08
-11.56
-16.54
-22.28
-28.95
-36.46
-44.33
-51.58
-56.85
-58.67
-55.99
-48.52
-37.02
-23.07
-8.62
4.53
15.15
22.67
27.06
28.56
27.56
24.52
20.02
14.81
9.75
5.65
3.06
2.10
2.44
3.39
4.16
4.06
2.79
0.42
-2.64
-5.92
-9.05
-11.88
-14.52
-17.22
-20.30
-24.03
-28.56
-33.80
-39.31
-44.26
-47.48
-47.78
-44.27
-36.72
-25.68
-12.35
1.74
15.12
26.63
35.50
41.32
43.97
43.60
40.70
36.04
30.70
25.75
22.01
19.84
19.02
18.87
18.55
17.33
14.84
11.20
6.82
2.26
-2.08
-6.10
-10.03
-14.25
-19.20
-25.16
-32.12
-39.75
-47.34
-53.75
-57.66
-57.84
-53.54
-44.82
-32.61
-18.42
-3.96
9.33
20.49
29.10
35.02
38.24
38.87
37.18
33.73
29.37
25.09
21.72
19.69
18.90
18.80
18.68
17.87
15.95
12.90
8.97
4.59
0.15
-4.12
-8.24
-12.47
-17.25
-23.01
-29.98
-38.00
-46.41
-54.09
-59.64
-61.68
-59.32
-52.39
-41.56
-28.23
-14.07
-0.63
10.98
20.20
26.86
30.93
32.47
31.66
28.91
24.97
20.83
17.48
15.53
15.05
15.50
16.03
15.77
14.18
11.28
7.48
3.42
-0.43
-3.86
-7.10
-10.57
-14.74
-19.91
-26.14
-33.21
-40.52
-47.13
-51.85
-53.41
-50.84
-43.82
-32.84
-19.17
-4.47
9.60
21.80
31.35
37.92
41.48
42.17
40.36
36.70
32.04
27.36
23.50
20.97
19.83
19.69
19.88
19.67
18.48
16.08
12.62
8.53
4.28
0.22
-3.60
-7.38
-11.48
-16.32
-22.12
-28.94
-36.50
-44.18
-50.96
-55.54
-56.61
-53.24
-45.31
-33.60
-19.67
-5.35
7.69
18.35
26.13
30.98
33.06
32.67
30.23
26.36
21.94
17.90
15.00
13.56
13.34
13.68
13.78
13.02
11.17
8.40
5.11
1.75
-1.43
-4.42
-7.39
-10.67
-14.59
-19.45
-25.39
-32.28
-39.57
-46.24
-50.94
-52.26
-49.26
-41.74
-30.37
-16.57
-2.05
11.54
22.93
31.30
36.32
38.01
36.71
33.15
28.28
23.23
18.93
16.01
14.54
14.18
14.26
14.07
13.12
11.20
8.44
5.17
1.78
-1.49
-4.63
-7.88
-11.63
-16.30
-22.14
-29.03
-36.34
-42.95
-47.44
-48.43
-45.04
-37.21
-25.78
-12.27
1.53
13.98
23.93
30.72
34.17
34.46
32.10
27.88
22.81
17.90
13.93
11.29
9.87
9.15
8.49
7.30
5.26
2.38
-1.13
-4.94
-8.84
-12.82
-17.12
-22.11
-28.13
-35.23
-42.91
-50.04
-55.12
-56.59
-53.39
-45.35
-33.25
-18.62
-3.31
11.00
23.04
32.08
37.80
40.20
39.58
36.53
31.94
26.89
22.40
19.13
17.22
16.26
15.59
14.52
12.64
9.92
6.58
2.89
-0.94
-4.99
-9.51
-14.93
-21.60
-29.61
-38.51
-47.26
-54.33
-58.04
-57.15
-51.21
-40.79
-27.26
-12.36
2.20
15.12
25.48
32.77
36.80
37.69
35.97
32.51
28.40
24.68
22.03
20.65
20.17
19.92
19.19
17.47
14.64
10.92
6.76
2.55
-1.52
-5.60
-10.15
-15.75
-22.81
-31.27
-40.38
-48.69
-54.38
-55.72
-51.71
-42.38
-28.80
-12.76
3.80
19.23
32.37
42.63
49.72
53.60
54.42
52.60
48.92
44.46
40.37
37.53
36.28
36.24
36.54
36.15
34.35
30.95
26.30
21.13
16.05
11.42
7.14
2.75
-2.32
-8.55
-16.20
-25.05
-34.40
-42.99
-49.25
-51.63
-49.08
-41.45
-29.54
-14.95
0.50
15.10
27.63
37.39
44.05
47.51
47.88
45.52
41.12
35.69
30.32
25.95
23.05
21.54
20.88
20.36
19.30
17.28
14.23
10.30
5.84
1.26
-3.18
-7.34
-11.24
-15.15
-19.46
-24.61
-30.91
-38.23
-45.89
-52.63
-56.89
-57.19
-52.70
-43.46
-30.50
-15.49
-0.34
13.31
24.31
32.08
36.53
37.85
36.49
33.11
28.62
24.04
20.38
18.30
17.97
18.96
20.41
21.35
21.08
19.31
16.29
12.50
8.49
4.60
0.91
-2.71
-6.59
-11.04
-16.36
-22.71
-29.93
-37.40
-44.02
-48.38
-49.06
-45.21
-36.80
-24.73
-10.54
4.02
17.43
28.59
36.81
41.76
43.33
41.72
37.58
31.97
26.20
21.49
18.53
17.35
17.32
17.55
17.20
15.86
13.50
10.39
6.90
3.25
-0.49
-4.43
-8.83
-14.00
-20.22
-27.56
-35.60
-43.44
-49.68
-52.79
-51.55
-45.47
-34.98
-21.38
-6.47
7.86
20.09
29.23
34.87
37.10
36.35
33.30
28.78
23.71
19.00
15.34
13.04
11.97
11.51
10.88
9.38
6.72
3.05
-1.09
-5.18
-8.91
-12.38
-16.04
-20.48
-26.10
-32.98
-40.68
-48.23
-54.34
-57.59
-56.82
-51.43
-41.66
-28.52
-13.59
1.37
14.87
25.87
33.92
38.91
41.02
40.55
38.01
34.10
29.71
25.76
22.91
21.38
20.82
20.50
19.63
17.71
14.65
10.79
6.59
2.39
-1.75
-6.06
-10.93
-16.72
-23.67
-31.73
-40.56
-49.33
-56.83
-61.55
-62.15
-57.85
-48.78
-35.96
-21.01
-5.69
8.60
20.92
30.73
37.76
41.86
43.09
41.75
38.53
34.37
30.26
26.99
24.92
23.92
23.51
23.00
21.78
19.49
16.11
11.99
7.60
3.35
-0.60
-4.43
-8.54
-13.42
-19.40
-26.57
-34.64
-42.89
-50.24
-55.29
-56.66
-53.32
-45.06
-32.62
-17.57
-1.94
12.48
24.47
33.56
39.79
43.47
44.84
44.11
41.58
37.78
33.46
29.45
26.35
24.33
23.10
22.07
20.58
18.18
14.72
10.37
5.49
0.46
-4.45
-9.17
-13.79
-18.54
-23.74
-29.70
-36.58
-44.28
-52.25
-59.48
-64.62
-66.23
-63.31
-55.56
-43.65
-28.97
-13.35
1.47
14.18
24.04
30.82
34.62
35.76
34.70
32.03
28.57
25.17
22.62
21.37
21.36
22.08
22.65
22.23
20.32
16.94
12.53
7.73
3.05
-1.33
-5.58
-10.05
-15.06
-20.78
-27.22
-34.26
-41.59
-48.66
-54.52
-57.90
-57.49
-52.46
-42.85
-29.70
-14.80
-0.13
12.73
22.80
29.76
33.70
34.89
33.67
30.59
26.41
22.10
18.59
16.41
15.54
15.43
15.29
14.39
12.41
9.44
5.90
2.29
-1.09
-4.23
-7.46
-11.23
-16.00
-21.99
-29.08
-36.70
-43.93
-49.53
-52.22
-51.00
-45.38
-35.64
-22.74
-8.16
6.48
19.74
30.56
38.28
42.61
43.61
41.63
37.45
32.11
26.79
22.40
19.37
17.59
16.48
15.34
13.58
10.98
7.58
3.66
-0.52
-4.79
-9.18
-13.86
-19.13
-25.32
-32.60
-40.81
-49.30
-56.89
-62.02
-63.20
-59.42
-50.61
-37.65
-22.18
-6.08
9.01
21.98
32.29
39.72
44.22
45.87
44.89
41.90
37.84
33.85
30.88
29.40
29.18
29.49
29.36
28.04
25.22
21.13
16.33
11.47
6.90
2.60
-1.78
-6.70
-12.59
-19.71
-28.10
-37.56
-47.48
-56.78
-63.98
-67.39
-65.67
-58.30
-45.88
-30.03
-12.89
3.51
17.77
29.26
37.91
43.89
47.37
48.48
47.46
44.84
41.36
37.87
35.06
33.27
32.42
32.05
31.59
30.45
28.23
24.81
20.31
15.08
9.45
3.71
-2.04
-7.84
-13.84
-20.20
-27.08
-34.59
-42.75
-51.31
-59.61
-66.46
-70.30
-69.63
-63.50
-51.98
-36.20
-18.05
0.37
17.24
31.37
42.18
49.53
53.60
54.76
53.59
50.92
47.68
44.72
42.61
41.47
41.02
40.78
40.27
39.19
37.45
35.07
32.09
28.53
24.33
19.45
14.01
8.20
2.31
-3.43
-8.89
-14.16
-19.47
-25.19
-31.77
-39.47
-48.23
-57.39
-65.67
-71.36
-72.74
-68.68
-59.08
-44.97
-28.24
-11.06
4.71
17.85
27.85
34.67
38.58
39.95
39.25
37.12
34.26
31.42
29.15
27.73
27.15
27.13
27.30
27.28
26.80
25.61
23.60
20.72
17.01
12.62
7.76
2.65
-2.47
-7.46
-12.29
-17.06
-22.05
-27.60
-34.01
-41.19
-48.57
-54.97
-58.89
-58.90
-54.14
-44.68
-31.54
-16.39
-1.11
12.72
24.01
32.24
37.27
39.25
38.55
35.74
31.63
27.21
23.41
20.87
19.78
19.84
20.39
20.69
20.14
18.43
15.63
12.05
8.10
4.14
0.28
-3.60
-7.84
-12.85
-18.94
-26.11
-33.99
-41.78
-48.32
-52.35
-52.73
-48.82
-40.64
-28.97
-15.15
-0.74
12.77
24.24
32.89
38.36
40.61
39.91
36.87
32.39
27.46
23.00
19.55
17.21
15.71
14.51
13.14
11.25
8.76
5.75
2.41
-1.13
-4.83
-8.81
-13.36
-18.82
-25.47
-33.27
-41.70
-49.62
-55.52
-57.87
-55.60
-48.48
-37.26
-23.41
-8.70
5.26
17.27
26.56
32.77
35.81
35.86
33.37
29.12
24.12
19.39
15.66
13.20
11.76
10.73
9.42
7.32
4.32
0.64
-3.26
-7.01
-10.47
-13.86
-17.71
-22.60
-28.92
-36.61
-44.96
-52.70
-58.18
-59.91
-56.95
-49.23
-37.59
-23.50
-8.61
5.64
18.29
28.74
36.63
41.73
43.88
43.22
40.24
35.86
31.16
27.05
24.04
22.05
20.59
18.98
16.67
13.44
9.41
4.96
0.43
-3.92
-8.15
-12.52
-17.47
-23.42
-30.61
-38.86
-47.51
-55.35
-60.88
-62.64
-59.63
-51.73
-39.70
-25.00
-9.37
5.68
19.10
30.30
39.00
45.03
48.26
48.73
46.81
43.22
38.98
35.10
32.27
30.65
29.85
29.15
27.78
25.24
21.46
16.77
11.73
6.86
2.42
-1.62
-5.62
-10.00
-15.19
-21.47
-28.88
-37.10
-45.39
-52.56
-57.11
-57.57
-53.02
-43.41
-29.69
-13.63
2.72
17.51
29.51
38.15
43.42
45.62
45.21
42.75
38.92
34.45
30.10
26.45
23.81
22.17
21.23
20.49
19.46
17.69
14.97
11.34
7.07
2.62
-1.62
-5.43
-8.89
-12.37
-16.32
-21.14
-27.03
-33.92
-41.45
-48.90
-55.19
-59.04
-59.16
-54.64
-45.41
-32.26
-16.78
-0.87
13.72
25.73
34.52
39.98
42.31
41.95
39.42
35.39
30.66
26.02
22.21
19.65
18.41
18.10
18.02
17.42
15.74
12.86
9.05
4.85
0.77
-3.00
-6.61
-10.50
-15.15
-20.94
-27.90
-35.67
-43.50
-50.33
-54.94
-56.20
-53.36
-46.28
-35.52
-22.26
-8.01
5.68
17.49
26.44
31.99
34.03
32.85
29.18
24.09
18.80
14.37
11.47
10.21
10.14
10.53
10.65
10.00
8.44
6.09
3.17
-0.10
-3.66
-7.61
-12.23
-17.79
-24.43
-31.97
-39.71
-46.47
-50.80
-51.34
-47.27
-38.59
-26.17
-11.51
3.67
17.73
29.47
38.12
43.32
45.07
43.68
39.78
34.32
28.42
23.14
19.19
16.78
15.52
14.69
13.54
11.54
8.61
4.99
1.03
-2.97
-6.98
-11.21
-16.01
-21.77
-28.65
-36.48
-44.55
-51.71
-56.46
-57.41
-53.66
-45.09
-32.51
-17.38
-1.40
13.86
27.18
37.83
45.34
49.54
50.47
48.48
44.25
38.75
33.04
28.03
24.22
21.57
19.65
17.78
15.38
12.12
8.03
3.38
-1.52
-6.45
-11.48
-16.82
-22.87
-29.93
-38.03
-46.76
-55.18
-61.90
-65.41
-64.46
-58.47
-47.73
-33.36
-17.01
-0.50
14.63
27.23
36.65
42.65
45.35
45.15
42.69
38.86
34.60
30.79
28.07
26.65
26.30
26.42
26.23
25.10
22.72
19.22
15.01
10.60
6.34
2.32
-1.69
-6.12
-11.44
-18.07
-26.10
-35.17
-44.29
-51.97
-56.46
-56.27
-50.71
-40.19
-26.16
-10.67
4.24
17.12
27.22
34.41
38.82
40.55
39.73
36.58
31.72
26.14
21.00
17.23
15.22
14.68
14.82
14.74
13.80
11.81
8.97
5.70
2.38
-0.80
-3.87
-6.99
-10.40
-14.33
-18.97
-24.47
-30.74
-37.40
-43.59
-48.05
-49.41
-46.57
-39.13
-27.61
-13.36
1.81
16.08
28.00
36.68
41.77
43.38
41.91
38.07
32.77
27.03
21.84
17.90
15.51
14.47
14.19
13.92
13.01
11.11
8.26
4.78
1.10
-2.49
-5.97
-9.62
-13.86
-19.10
-25.52
-32.85
-40.35
-46.84
-50.89
-51.28
-47.29
-39.00
-27.31
-13.72
0.08
12.57
22.63
29.62
33.29
33.77
31.49
27.20
21.86
16.53
12.07
8.95
7.18
6.33
5.75
4.84
3.22
0.82
-2.17
-5.55
-9.19
-13.15
-17.65
-22.93
-29.09
-35.87
-42.57
-48.04
-50.92
-49.94
-44.38
-34.29
-20.69
-5.22
10.16
23.70
34.22
41.14
44.49
44.69
42.39
38.43
33.73
29.20
25.56
23.12
21.70
20.70
19.36
17.11
13.79
9.64
5.11
0.55
-4.00
-8.85
-14.48
-21.29
-29.29
-37.91
-46.03
-52.14
-54.75
-52.75
-45.85
-34.68
-20.65
-5.61
8.69
20.86
30.12
36.12
38.91
38.71
36.00
31.49
26.09
20.75
16.18
12.68
10.09
7.93
5.69
3.02
-0.11
-3.56
-7.11
-10.70
-14.45
-18.67
-23.75
-29.97
-37.30
-45.25
-52.86
-58.74
-61.46
-59.88
-53.53
-42.83
-28.99
-13.66
1.43
14.85
25.66
33.38
37.93
39.50
38.54
35.73
31.90
27.93
24.52
22.01
20.36
19.17
17.94
16.26
13.99
11.22
8.18
5.08
2.01
-1.14
-4.66
-8.98
-14.48
-21.36
-29.35
-37.55
-44.51
-48.53
-48.17
-42.79
-32.83
-19.70
-5.28
8.62
20.65
30.10
36.69
40.41
41.36
39.79
36.27
31.63
26.91
23.04
20.53
19.34
18.92
18.48
17.31
15.08
11.87
8.13
4.35
0.87
-2.26
-5.36
-8.86
-13.22
-18.70
-25.25
-32.46
-39.54
-45.35
-48.57
-48.01
-43.01
-33.68
-20.99
-6.54
7.85
20.56
30.48
37.07
40.24
40.26
37.64
33.14
27.71
22.41
18.13
15.39
14.18
13.97
13.96
13.32
11.59
8.68
4.91
0.76
-3.32
-7.15
-10.82
-14.69
-19.19
-24.61
-30.94
-37.66
-43.82
-48.14
-49.34
-46.49
-39.37
-28.57
-15.40
-1.57
11.20
21.54
28.60
32.11
32.29
29.77
25.44
20.31
15.32
11.21
8.32
6.67
5.93
5.62
5.31
4.63
3.42
1.59
-0.84
-3.88
-7.53
-11.90
-17.10
-23.17
-29.81
-36.20
-41.13
-43.11
-40.95
-34.16
-23.22
-9.50
5.14
18.80
30.02
37.91
42.16
42.88
40.58
36.00
30.12
23.96
18.37
13.88
10.56
8.15
6.18
4.22
1.99
-0.66
-3.77
-7.40
-11.63
-16.60
-22.45
-29.20
-36.69
-44.37
-51.22
-55.86
-56.85
-53.16
-44.55
-31.82
-16.56
-0.72
13.93
26.14
35.23
41.03
43.65
43.44
40.96
37.04
32.60
28.48
25.16
22.66
20.63
18.55
16.04
13.01
9.62
6.11
2.63
-0.94
-4.91
-9.74
-15.78
-23.08
-31.21
-39.20
-45.61
-48.90
-47.81
-41.83
-31.39
-17.80
-2.86
11.66
24.40
34.62
42.05
46.66
48.54
47.86
45.04
40.76
35.94
31.45
27.85
25.19
23.12
21.05
18.46
15.18
11.29
7.17
3.14
-0.60
-4.18
-8.01
-12.69
-18.73
-26.29
-34.91
-43.44
-50.20
-53.46
-51.98
-45.41
-34.41
-20.50
-5.46
9.04
21.81
32.22
40.01
45.18
47.81
48.06
46.25
42.88
38.61
34.22
30.40
27.62
26.02
25.41
25.29
25.08
24.21
22.33
19.31
15.23
10.32
4.90
-0.71
-6.20
-11.37
-16.14
-20.68
-25.34
-30.55
-36.67
-43.62
-50.71
-56.66
-59.80
-58.64
-52.38
-41.29
-26.61
-10.28
5.71
19.80
31.10
39.38
44.80
47.70
48.39
47.21
44.57
41.07
37.34
33.96
31.24
29.16
27.44
25.66
23.47
20.70
17.34
13.51
9.34
4.92
0.31
-4.39
-9.08
-13.63
-17.92
-21.91
-25.69
-29.41
-33.34
-37.74
-42.68
-47.94
-52.78
-56.09
-56.60
-53.29
-45.78
-34.58
-20.95
-6.54
7.02
18.55
27.44
33.58
37.16
38.51
38.00
36.03
33.11
29.84
26.90
24.80
23.76
23.62
23.83
23.74
22.80
20.82
17.98
14.72
11.44
8.34
5.34
2.13
-1.56
-5.93
-10.99
-16.61
-22.60
-28.66
-34.39
-39.15
-42.11
-42.45
-39.55
-33.34
-24.36
-13.70
-2.69
7.39
15.62
21.43
24.67
25.45
24.12
21.24
17.51
13.68
10.40
8.09
6.81
6.30
6.12
5.77
4.92
3.44
1.43
-0.91
-3.39
-5.93
-8.65
-11.76
-15.53
-20.09
-25.30
-30.70
-35.51
-38.79
-39.60
-37.33
-31.83
-23.52
-13.30
-2.38
8.02
16.84
23.36
27.22
28.40
27.21
24.21
20.13
15.79
11.84
8.72
6.52
5.03
3.87
2.63
1.07
-0.92
-3.21
-5.65
-8.14
-10.67
-13.39
-16.56
-20.45
-25.17
-30.52
-35.88
-40.26
-42.49
-41.60
-37.12
-29.30
-19.05
-7.67
3.55
13.56
21.72
27.71
31.44
32.97
32.52
30.47
27.39
23.94
20.69
17.95
15.77
13.90
12.05
9.97
7.57
4.91
2.14
-0.62
-3.37
-6.20
-9.34
-13.07
-17.63
-23.14
-29.43
-35.96
-41.82
-45.82
-46.85
-44.17
-37.73
-28.21
-16.84
-5.06
5.85
15.06
22.19
27.19
30.13
31.07
30.12
27.52
23.73
19.42
15.33
12.02
9.70
8.15
6.90
5.44
3.45
0.90
-1.97
-4.90
-7.68
-10.30
-12.97
-15.94
-19.51
-23.85
-28.99
-34.76
-40.70
-46.06
-49.83
-50.94
-48.52
-42.25
-32.56
-20.56
-7.77
4.23
14.34
22.01
27.30
30.55
32.19
32.54
31.78
30.13
27.88
25.47
23.30
21.65
20.51
19.62
18.55
16.87
14.31
10.87
6.72
2.16
-2.53
-7.12
-11.53
-15.75
-19.89
-24.10
-28.62
-33.69
-39.36
-45.44
-51.29
-55.87
-58.01
-56.68
-51.44
-42.58
-31.08
-18.35
-5.79
5.48
14.81
21.97
26.94
29.83
30.77
29.97
27.81
24.92
22.00
19.73
18.50
18.30
18.72
19.08
18.77
17.39
14.94
11.73
8.17
4.61
1.22
-2.07
-5.41
-9.00
-13.02
-17.60
-22.75
-28.26
-33.63
-38.03
-40.44
-39.93
-36.02
-28.83
-19.12
-8.06
3.03
12.99
20.95
26.43
29.26
29.57
27.78
24.53
20.59
16.70
13.44
11.10
9.61
8.62
7.67
6.34
4.48
2.15
-0.39
-2.88
-5.20
-7.44
-9.85
-12.76
-16.46
-21.06
-26.40
-31.94
-36.83
-39.98
-40.34
-37.21
-30.51
-20.87
-9.48
2.17
12.71
21.09
26.71
29.46
29.55
27.55
24.19
20.30
16.61
13.67
11.67
10.50
9.84
9.28
8.48
7.25
5.47
3.15
0.25
-3.19
-7.21
-11.85
-17.13
-22.95
-29.01
-34.61
-38.74
-40.28
-38.30
-32.49
-23.28
-11.83
0.33
11.72
21.19
28.08
32.22
33.73
32.97
30.49
26.92
22.91
19.02
15.63
12.88
10.69
8.87
7.18
5.40
3.42
1.21
-1.24
-3.99
-7.20
-11.17
-16.20
-22.35
-29.20
-35.79
-40.67
-42.34
-39.71
-32.55
-21.61
-8.40
5.21
17.58
27.60
34.83
39.36
41.48
41.54
39.87
36.88
33.03
28.91
25.04
21.74
18.97
16.45
13.84
10.85
7.46
3.77
-0.06
-4.01
-8.27
-13.17
-19.02
-25.87
-33.31
-40.43
-45.95
-48.56
-47.22
-41.62
-32.20
-20.14
-6.95
5.88
17.17
26.22
32.74
36.72
38.30
37.81
35.71
32.64
29.22
25.97
23.15
20.73
18.44
15.95
13.03
9.66
5.97
2.18
-1.59
-5.37
-9.36
-13.94
-19.41
-25.87
-32.93
-39.68
-44.81
-46.92
-44.95
-38.58
-28.33
-15.45
-1.53
11.93
23.77
33.30
40.19
44.32
45.79
44.87
42.10
38.21
34.00
30.13
26.90
24.24
21.79
19.12
15.95
12.24
8.17
3.97
-0.21
-4.36
-8.68
-13.46
-18.99
-25.40
-32.57
-39.97
-46.68
-51.48
-53.15
-50.83
-44.27
-34.02
-21.26
-7.54
5.63
17.00
25.78
31.62
34.55
34.90
33.25
30.37
27.11
24.24
22.27
21.34
21.17
21.20
20.84
19.72
17.76
15.19
12.38
9.62
6.99
4.33
1.29
-2.56
-7.46
-13.34
-19.67
-25.48
-29.52
-30.62
-28.06
-21.83
-12.67
-1.82
9.28
19.39
27.56
33.21
36.09
36.23
33.98
30.01
25.20
20.39
16.20
12.94
10.56
8.85
7.57
6.48
5.42
4.26
2.84
1.10
-1.03
-3.61
-6.74
-10.55
-15.11
-20.23
-25.34
-29.41
-31.24
-29.78
-24.56
-15.93
-5.01
6.63
17.42
26.16
32.21
35.45
36.13
34.68
31.65
27.66
23.36
19.32
15.93
13.28
11.22
9.39
7.49
5.32
2.80
0.01
-3.01
-6.30
-10.02
-14.35
-19.41
-25.04
-30.73
-35.60
-38.52
-38.45
-34.78
-27.54
-17.52
-6.02
5.41
15.39
22.95
27.63
29.47
28.89
26.50
23.04
19.16
15.36
11.95
9.03
6.54
4.36
2.31
0.26
-1.88
-4.18
-6.66
-9.34
-12.24
-15.54
-19.44
-24.09
-29.33
-34.50
-38.47
-39.93
-37.86
-31.91
-22.63
-11.32
0.39
10.94
19.29
24.96
27.98
28.73
27.74
25.59
22.80
19.85
17.08
14.65
12.57
10.72
8.94
7.09
5.15
3.15
1.15
-0.89
-3.15
-5.93
-9.55
-14.17
-19.57
-25.19
-30.07
-33.12
-33.41
-30.46
-24.35
-15.80
-5.96
3.90
12.61
19.37
23.80
25.93
26.02
24.53
21.93
18.68
15.17
11.72
8.58
5.86
3.62
1.80
0.24
-1.23
-2.80
-4.60
-6.73
-9.25
-12.27
-15.93
-20.31
-25.32
-30.50
-35.09
-38.07
-38.47
-35.67
-29.56
-20.68
-10.02
1.13
11.48
19.96
25.94
29.18
29.87
28.48
25.64
22.01
18.19
14.66
11.65
9.20
7.12
5.10
2.87
0.25
-2.73
-5.94
-9.19
-12.35
-15.40
-18.51
-21.92
-25.87
-30.45
-35.48
-40.37
-44.20
-45.97
-44.82
-40.36
-32.83
-23.03
-12.15
-1.42
8.10
15.70
21.04
24.08
25.07
24.42
22.70
20.51
18.44
16.94
16.17
16.03
16.12
15.93
15.07
13.39
11.08
8.50
6.03
3.84
1.80
-0.45
-3.32
-7.05
-11.56
-16.39
-20.80
-23.91
-24.92
-23.28
-18.86
-12.06
-3.69
5.20
13.51
20.38
25.21
27.74
28.01
26.32
23.18
19.26
15.29
11.89
9.46
8.06
7.45
7.20
6.88
6.17
4.96
3.33
1.40
-0.73
-3.09
-5.78
-8.95
-12.59
-16.50
-20.16
-22.85
-23.81
-22.42
-18.44
-12.07
-3.97
4.90
13.45
20.72
26.01
28.99
29.73
28.56
25.98
22.60
18.96
15.56
12.75
10.69
9.41
8.75
8.47
8.33
8.07
7.54
6.61
5.18
3.15
0.42
-3.05
-7.05
-11.13
-14.54
-16.44
-16.09
-13.09
-7.62
-0.32
7.73
15.38
21.68
25.99
28.06
27.90
25.70
21.76
16.48
10.35
3.93
-2.25
-7.80
-12.52
-16.44
-19.73
-22.61
-25.24
-27.78
-30.33
-33.02
-35.96
-39.25
-42.91
-46.79
-50.51
-53.46
-54.86
-53.90
-49.99
-43.02
-33.40
-22.07
-10.20
1.00
10.59
17.96
22.89
25.41
25.83
24.60
22.30
19.51
16.69
14.15
11.94
9.99
8.08
6.07
3.81
1.23
-1.70
-5.00
-8.73
-12.91
-17.64
-22.93
-28.64
-34.30
-39.13
-42.11
-42.27
-39.07
-32.57
-23.52
-13.13
-2.70
6.65
14.22
19.69
23.03
24.38
24.00
22.28
19.74
16.93
14.30
12.11
10.33
8.76
7.16
5.35
3.38
1.35
-0.66
-2.70
-4.99
-7.89
-11.78
-16.87
-23.05
-29.86
-36.48
-41.86
-44.93
-44.87
-41.36
-34.67
-25.65
-15.44
-5.25
3.93
11.38
16.72
19.80
20.68
19.61
17.08
13.82
10.60
8.05
6.42
5.61
5.16
4.56
3.51
1.93
0.04
-1.88
-3.63
-5.24
-6.90
-9.01
-11.87
-15.68
-20.30
-25.26
-29.73
-32.70
-33.22
-30.62
-24.82
-16.36
-6.28
4.09
13.53
21.15
26.52
29.60
30.66
30.10
28.42
26.16
23.89
22.13
21.24
21.35
22.31
23.75
25.17
26.17
26.44
25.87
24.48
22.32
19.41
15.70
11.07
5.52
-0.76
-7.18
-12.84
-16.67
-17.74
-15.60
-10.46
-3.13
5.17
13.20
19.93
24.75
27.43
28.00
26.70
23.92
20.19
16.15
12.43
9.48
7.47
6.29
5.61
5.13
4.58
3.85
2.90
1.71
0.23
-1.64
-3.99
-6.94
-10.42
-14.10
-17.29
-19.05
-18.40
-14.71
-8.01
0.95
10.85
20.25
27.96
33.31
36.15
36.66
35.15
31.91
27.24
21.45
15.03
8.55
2.60
-2.38
-6.24
-9.16
-11.49
-13.65
-15.95
-18.51
-21.34
-24.45
-27.88
-31.59
-35.35
-38.51
-40.08
-38.93
-34.23
-25.76
-14.14
-0.60
13.30
26.07
36.62
44.36
49.17
51.25
50.91
48.58
44.74
39.89
34.54
29.17
24.05
19.27
14.72
10.24
5.64
0.86
-4.10
-9.21
-14.49
-20.04
-25.94
-32.10
-38.13
-43.31
-46.74
-47.52
-45.10
-39.43
-31.07
-21.02
-10.50
-0.69
7.53
13.68
17.63
19.58
19.92
19.06
17.45
15.46
13.31
11.21
9.27
7.57
6.12
4.91
3.78
2.51
0.84
-1.43
-4.41
-8.09
-12.38
-17.12
-22.01
-26.58
-30.13
-31.85
-31.01
-27.26
-20.73
-12.17
-2.67
6.54
14.47
20.50
24.45
26.46
26.85
26.05
24.43
22.38
20.20
18.15
16.39
15.00
13.95
13.16
12.45
11.63
10.55
9.05
7.06
4.56
1.52
-2.08
-6.18
-10.53
-14.61
-17.58
-18.46
-16.45
-11.30
-3.43
6.09
15.84
24.48
31.04
35.09
36.65
36.11
34.00
30.89
27.29
23.66
20.33
17.49
15.16
13.19
11.29
9.15
6.55
3.46
0.06
-3.37
-6.68
-9.98
-13.62
-17.92
-22.91
-28.05
-32.31
-34.48
-33.67
-29.70
-23.14
-15.16
-7.10
-0.10
5.16
8.42
9.73
9.31
7.43
4.45
0.79
-3.04
-6.51
-9.18
-10.85
-11.57
-11.60
-11.36
-11.22
-11.44
-12.14
-13.36
-15.12
-17.44
-20.23
-23.16
-25.56
-26.59
-25.43
-21.64
-15.39
-7.43
1.11
9.08
15.58
20.14
22.71
23.44
22.63
20.61
17.70
14.26
10.66
7.25
4.25
1.78
-0.18
-1.75
-3.08
-4.37
-5.80
-7.58
-9.98
-13.17
-17.12
-21.51
-25.67
-28.68
-29.67
-28.03
-23.63
-16.87
-8.59
0.27
8.77
16.22
22.19
26.48
29.07
30.07
29.65
28.09
25.69
22.83
19.88
17.19
14.98
13.29
11.95
10.72
9.27
7.43
5.09
2.27
-1.04
-4.80
-8.87
-12.94
-16.38
-18.35
-17.99
-14.76
-8.60
-0.03
9.99
20.35
30.01
38.25
44.67
49.13
51.64
52.30
51.21
48.54
44.63
39.94
35.00
30.28
26.07
22.38
19.07
15.87
12.53
8.85
4.57
-0.58
-6.86
-14.35
-22.82
-31.61
-39.65
-45.77
-48.99
-48.76
-45.16
-38.78
-30.60
-21.67
-12.98
-5.28
0.92
5.31
7.78
8.38
7.31
4.96
1.80
-1.67
-5.04
-8.07
-10.71
-13.01
-15.06
-16.88
-18.40
-19.55
-20.29
-20.70
-20.99
-21.46
-22.41
-24.04
-26.38
-29.21
-32.02
-34.01
-34.35
-32.31
-27.55
-20.27
-11.19
-1.33
8.22
16.56
23.16
27.80
30.52
31.49
30.98
29.36
27.05
24.49
22.06
19.95
18.18
16.60
14.99
13.18
11.10
8.76
6.25
3.59
0.71
-2.56
-6.42
-10.98
-16.21
-21.77
-27.09
-31.40
-33.91
-34.02
-31.47
-26.49
-19.71
-12.04
-4.47
2.15
7.22
10.45
11.83
11.63
10.25
8.17
5.91
3.89
2.38
1.47
1.08
1.00
0.99
0.88
0.53
-0.04
-0.83
-1.82
-3.08
-4.76
-7.06
-10.13
-13.89
-17.94
-21.58
-23.94
-24.20
-21.86
-16.95
-10.01
-1.97
6.06
13.06
18.29
21.38
22.35
21.55
19.53
16.93
14.24
11.82
9.79
8.14
6.72
5.34
3.81
1.97
-0.21
-2.67
-5.17
-7.54
-9.69
-11.81
-14.19
-17.12
-20.55
-24.03
-26.71
-27.64
-26.10
-21.96
-15.69
-8.26
-0.81
5.67
10.54
13.54
14.72
14.32
12.64
10.01
6.78
3.37
0.17
-2.53
-4.57
-5.97
-6.92
-7.72
-8.62
-9.84
-11.49
-13.66
-16.45
-19.88
-23.86
-28.01
-31.64
-33.83
-33.74
-30.88
-25.38
-17.98
-9.79
-1.95
4.63
9.43
12.29
13.31
12.74
10.94
8.33
5.35
2.46
0.03
-1.72
-2.67
-2.93
-2.72
-2.40
-2.35
-2.92
-4.34
-6.68
-9.84
-13.54
-17.29
-20.44
-22.24
-21.98
-19.26
-14.09
-6.94
1.34
9.82
17.63
24.10
28.83
31.59
32.34
31.25
28.72
25.26
21.47
17.82
14.60
11.86
9.48
7.24
4.91
2.29
-0.81
-4.54
-9.06
-14.39
-20.40
-26.68
-32.51
-36.97
-39.11
-38.28
-34.26
-27.39
-18.52
-8.75
0.80
9.24
16.02
20.96
24.12
25.66
25.77
24.65
22.51
19.58
16.24
12.86
9.79
7.19
5.05
3.13
1.11
-1.32
-4.37
-8.17
-12.69
-17.74
-22.85
-27.29
-30.07
-30.28
-27.34
-21.24
-12.69
-2.86
6.93
15.61
22.51
27.44
30.49
31.86
31.71
30.18
27.45
23.84
19.83
15.91
12.49
9.74
7.58
5.71
3.83
1.66
-0.97
-4.15
-7.99
-12.52
-17.61
-22.81
-27.29
-30.03
-30.07
-26.83
-20.39
-11.47
-1.23
8.99
18.03
25.08
29.79
32.14
32.38
30.94
28.26
24.82
21.07
17.45
14.26
11.68
9.70
8.08
6.51
4.70
2.47
-0.22
-3.36
-7.00
-11.20
-15.99
-21.09
-25.82
-29.13
-29.95
-27.54
-21.83
-13.45
-3.56
6.55
15.77
23.34
28.85
32.20
33.49
33.00
31.15
28.42
25.32
22.24
19.41
16.92
14.72
12.70
10.74
8.68
6.39
3.77
0.78
-2.64
-6.51
-10.88
-15.70
-20.70
-25.28
-28.60
-29.67
-27.80
-22.76
-15.04
-5.71
3.91
12.55
19.33
23.81
26.01
26.20
24.87
22.52
19.67
16.75
14.05
11.73
9.81
8.25
6.94
5.79
4.70
3.55
2.19
0.49
-1.68
-4.41
-7.77
-11.66
-15.80
-19.59
-22.18
-22.75
-20.72
-16.03
-9.23
-1.32
6.55
13.38
18.49
21.61
22.77
22.19
20.21
17.20
13.56
9.73
6.07
2.86
0.25
-1.77
-3.30
-4.51
-5.62
-6.80
-8.21
-9.96
-12.17
-14.97
-18.41
-22.34
-26.32
-29.58
-31.17
-30.28
-26.50
-20.06
-11.80
-2.91
5.36
12.03
16.61
19.02
19.50
18.45
16.32
13.55
10.59
7.90
5.85
4.69
4.47
5.02
6.09
7.33
8.43
9.05
8.90
7.73
5.42
2.17
