1630943606.00
64.000000
-0.00
-0.00
-0.00
-0.00
-0.00
-0.00
-0.00
-0.00
-0.00
-0.00
0.00
0.01
0.01
-0.00
-0.03
-0.05
-0.05
0.00
0.13
0.36
0.66
1.01
1.37
1.72
2.06
2.40
2.79
3.24
3.80
4.42
5.06
5.66
6.20
6.68
7.15
7.68
8.31
9.14
10.09
11.04
11.88
12.56
13.14
13.76
14.65
15.96
17.91
20.32
22.90
25.38
27.58
29.57
31.68
34.32
37.81
42.54
48.15
54.10
59.83
64.97
69.58
74.14
79.34
85.71
93.76
103.00
112.62
121.73
129.77
136.75
143.30
150.75
157.77
166.64
177.95
191.79
206.97
220.57
228.25
225.36
208.53
176.87
132.76
80.05
23.07
-34.94
-92.44
-149.16
-205.23
-260.37
-313.74
-363.87
-409.83
-450.91
-486.50
-515.74
-537.23
-549.22
-549.96
-538.37
-514.21
-478.67
-433.88
-382.45
-327.02
-269.84
-212.63
-156.66
-102.95
-52.37
-5.90
35.58
71.43
101.35
125.50
144.38
158.69
169.15
176.37
180.75
182.57
182.07
179.51
175.23
169.65
163.18
156.15
148.81
141.30
133.69
126.02
118.33
110.69
103.16
95.80
88.68
81.83
75.25
68.95
62.95
57.25
51.86
46.78
42.03
37.59
33.45
29.61
26.07
22.81
19.83
17.11
14.67
12.48
10.54
8.83
7.35
6.07
4.97
4.05
3.27
2.62
2.09
1.65
1.30
1.01
0.79
0.61
0.48
0.37
0.29
0.24
0.20
0.18
0.16
0.16
0.17
0.20
0.24
0.28
0.32
0.34
0.33
0.28
0.22
0.18
0.18
0.22
0.30
0.37
0.40
0.37
0.31
0.23
0.18
0.20
0.30
0.46
0.61
0.72
0.74
0.71
0.69
0.76
0.97
1.32
1.73
2.05
2.14
1.94
1.52
1.08
0.85
1.03
1.63
2.44
3.14
3.39
3.05
2.26
1.41
0.97
1.27
2.34
3.79
5.00
5.39
4.74
3.28
1.65
0.54
0.29
0.67
0.99
0.35
-1.92
-5.97
-11.57
-18.39
-26.13
-34.26
-41.71
-46.83
-48.03
-44.53
-37.13
-28.07
-20.08
-15.11
-13.42
-13.67
-13.87
-12.63
-9.80
-6.16
-2.58
0.78
4.42
8.83
13.50
16.52
15.02
6.56
-9.44
-30.92
-53.33
-70.95
-78.78
-74.14
-57.49
-32.15
-2.97
25.22
49.00
66.97
79.58
88.39
95.11
100.66
104.61
105.39
100.98
89.97
72.39
49.99
25.91
4.00
-12.37
-21.26
-22.61
-18.35
-11.52
-5.34
-2.19
-2.91
-6.66
-11.56
-15.53
-16.96
-14.99
-9.52
-0.79
10.77
23.17
34.36
42.35
45.69
43.89
37.50
27.90
16.74
5.47
-5.07
-14.41
-22.56
-29.68
-35.75
-40.38
-42.70
-41.67
-36.59
-27.56
-15.69
-2.94
8.39
16.44
20.41
20.68
18.54
15.63
13.26
12.20
12.44
13.50
14.78
15.90
16.78
17.57
18.42
19.29
20.03
20.46
20.61
20.74
21.27
22.57
24.71
27.51
30.51
33.19
35.11
35.94
35.40
33.22
29.03
22.54
13.58
2.33
-10.64
-24.30
-37.54
-49.39
-59.28
-67.16
-73.35
-78.13
-81.51
-83.14
-82.51
-79.31
-73.72
-66.50
-58.67
-51.20
-44.65
-39.12
-34.40
-30.20
-26.40
-23.06
-20.31
-18.28
-16.94
-16.21
-15.93
-15.97
-16.19
-16.39
-16.29
-15.57
-13.98
-11.46
-8.14
-4.35
-0.59
2.64
4.94
6.07
6.05
5.12
3.61
1.86
0.06
-1.70
-3.44
-5.23
-7.12
-9.12
-11.26
-13.47
-15.52
-16.93
-17.06
-15.40
-11.84
-6.87
-1.38
3.77
8.14
11.93
15.67
19.80
24.23
28.38
31.45
32.88
32.61
31.01
28.55
25.60
22.25
18.61
14.90
11.53
8.95
7.44
6.88
6.82
6.71
6.08
4.79
3.03
1.18
-0.39
-1.43
-1.99
-2.26
-2.52
-2.97
-3.61
-4.26
-4.60
-4.39
-3.52
-2.14
-0.63
0.61
1.27
1.28
0.89
0.47
0.46
1.11
2.47
4.46
6.88
9.57
12.39
15.24
17.99
20.51
22.73
24.57
26.09
27.36
28.46
29.44
30.38
31.40
32.73
34.63
37.29
40.75
44.79
49.06
53.22
57.10
60.82
64.67
69.04
74.15
79.91
85.88
91.50
96.29
100.12
103.43
107.04
111.91
118.67
127.14
136.13
143.50
146.72
143.64
133.23
115.87
93.04
66.61
37.98
7.42
-25.87
-63.37
-106.62
-156.75
-213.88
-276.52
-340.92
-400.75
-448.06
-475.11
-476.77
-452.42
-405.92
-343.81
-272.53
-196.49
-117.99
-38.79
38.17
108.19
166.10
208.35
234.70
248.08
252.99
253.30
250.83
245.10
234.09
215.31
186.51
146.08
93.50
30.08
-40.27
-111.03
-174.27
-222.97
-253.17
-264.88
-261.23
-246.55
-224.35
-196.36
-162.88
-123.89
-79.98
-32.49
16.91
66.74
115.66
162.05
203.45
236.65
258.41
266.61
260.98
243.34
217.03
185.98
153.60
122.01
91.85
62.77
34.33
6.90
-18.09
-38.78
-53.73
-62.67
-66.42
-66.30
-63.31
-57.90
-50.38
-41.50
-32.80
-26.13
-22.73
-22.47
-23.84
-24.67
-23.21
-18.87
-12.31
-5.03
1.32
5.54
7.10
6.22
3.70
0.59
-2.18
-4.25
-5.98
-8.32
-12.21
-18.10
-25.54
-33.33
-39.95
-44.24
-45.75
-44.88
-42.62
-40.10
-38.31
-37.76
-38.47
-39.95
-41.44
-42.22
-41.89
-40.51
-38.56
-36.63
-35.13
-34.28
-34.09
-34.57
-35.77
-37.71
-40.18
-42.74
-44.86
-46.18
-46.72
-46.77
-46.65
-46.42
-45.89
-44.74
-42.90
-40.56
-38.09
-35.73
-33.52
-31.24
-28.71
-26.00
-23.46
-21.50
-20.31
-19.70
-19.03
-17.51
-14.50
-9.76
-3.48
3.68
10.84
17.08
21.71
24.47
25.55
25.46
24.83
24.14
23.56
23.04
22.40
21.48
20.23
18.62
16.52
13.65
9.71
4.54
-1.72
-8.57
-15.25
-20.93
-25.00
-27.18
-27.57
-26.52
-24.50
-21.92
-19.15
-16.41
-13.94
-11.99
-10.82
-10.67
-11.67
-13.72
-16.45
-19.24
-21.46
-22.67
-22.88
-22.59
-22.65
-23.91
-26.74
-30.77
-34.65
-36.39
-33.80
-25.22
-10.11
10.59
34.62
58.86
80.26
96.46
106.32
109.82
107.76
101.34
91.84
80.53
68.73
57.63
48.18
40.71
34.85
29.70
24.39
18.53
12.57
7.55
4.73
4.97
8.32
14.10
21.16
28.39
34.97
40.55
45.04
48.50
51.09
53.03
54.61
56.07
57.38
58.17
57.79
55.69
51.73
46.34
40.49
35.19
31.07
27.97
25.03
21.05
15.05
6.81
-2.81
-12.02
-18.42
-19.71
-14.22
-1.42
17.95
42.03
68.18
93.39
114.60
129.10
134.82
130.86
117.71
97.30
72.55
46.65
22.25
0.99
-16.60
-30.60
-41.31
-48.90
-53.42
-55.15
-54.72
-53.10
-51.27
-49.82
-48.76
-47.71
-46.19
-44.09
-41.71
-39.62
-38.29
-37.79
-37.74
-37.54
-36.66
-34.99
-32.77
-30.46
-28.43
-26.82
-25.55
-24.51
-23.60
-22.87
-22.31
-21.89
-21.42
-20.73
-19.75
-18.62
-17.61
-17.00
-16.93
-17.39
-18.23
-19.29
-20.46
-21.65
-22.81
-23.84
-24.74
-25.56
-26.49
-27.73
-29.36
-31.31
-33.23
-34.63
-35.02
-34.02
-31.47
-27.52
-22.63
-17.44
-12.67
-8.83
-6.05
-4.00
-2.10
0.24
3.26
6.72
9.95
12.13
12.77
11.97
10.64
10.38
13.15
21.06
35.98
59.40
91.70
131.44
174.64
214.74
243.75
254.15
241.15
204.16
146.90
76.16
0.06
-73.44
-137.14
-184.76
-211.42
-214.53
-195.12
-158.38
-112.89
-68.27
-32.44
-9.47
0.87
1.80
-2.30
-7.86
-12.77
-16.31
-18.36
-18.85
-17.69
-14.87
-10.81
-6.28
-2.20
0.69
2.07
2.13
1.39
0.47
-0.11
-0.13
0.37
1.11
1.81
2.28
2.53
2.82
3.41
4.48
5.98
7.62
8.95
9.57
9.30
8.21
6.62
4.97
3.68
2.93
2.64
2.48
2.02
1.01
-0.59
-2.48
-4.27
-5.54
-6.13
-6.13
-5.93
-6.03
-6.86
-8.60
-11.05
-13.69
-15.85
-16.96
-16.76
-15.37
-13.17
-10.58
-7.92
-5.37
-2.98
-0.83
1.04
2.63
4.03
5.42
6.87
8.31
9.44
9.98
9.81
9.09
8.22
7.65
7.70
8.42
9.63
10.96
12.00
12.35
11.74
10.16
7.87
5.41
3.33
2.06
1.67
1.91
2.32
2.42
1.88
0.59
-1.39
-3.88
-6.64
-9.33
-11.62
-13.22
-14.08
-14.33
-14.36
-14.55
-15.16
-16.15
-17.28
-18.15
-18.39
-17.76
-16.20
-13.86
-10.99
-7.94
-5.04
-2.51
-0.42
1.31
2.75
3.91
4.75
5.27
5.59
6.00
6.74
7.96
9.47
10.94
12.01
12.56
12.70
12.65
12.51
12.23
11.60
10.44
8.73
6.66
4.48
2.40
0.45
-1.41
-3.27
-5.15
-7.04
-8.85
-10.49
-11.82
-12.85
-13.63
-14.37
-15.32
-16.67
-18.47
-20.54
-22.58
-24.30
-25.46
-25.93
-25.58
-24.30
-21.96
-18.53
-14.20
-9.34
-4.44
0.09
4.00
7.22
9.85
11.96
13.63
14.87
15.68
16.08
16.15
15.96
15.61
15.17
14.69
14.24
13.86
13.57
13.40
13.35
13.36
13.36
13.26
13.04
12.78
12.61
12.70
13.06
13.56
13.95
13.94
13.32
12.09
10.39
8.45
6.52
4.76
3.27
2.03
1.01
0.06
-1.02
-2.45
-4.36
-6.70
-9.21
-11.44
-12.92
-13.24
-12.15
-9.65
-5.94
-1.46
3.23
7.50
10.79
12.78
13.50
13.34
12.86
12.63
12.95
13.82
14.91
15.79
16.08
15.60
14.39
12.72
10.88
9.08
7.42
5.85
4.32
2.80
1.37
0.12
-0.87
-1.61
-2.15
-2.57
-2.87
-3.00
-2.97
-2.83
-2.76
-2.90
-3.34
-3.99
-4.69
-5.32
-5.93
-6.71
-7.92
-9.71
-12.02
-14.51
-16.70
-18.11
-18.41
-17.51
-15.48
-12.56
-9.05
-5.29
-1.63
1.64
4.31
6.29
7.73
8.79
9.65
10.31
10.65
10.48
9.73
8.59
7.43
6.71
6.72
7.47
8.70
10.01
11.03
11.59
11.70
11.51
11.21
10.90
10.55
10.05
9.25
8.08
6.58
4.94
3.37
2.04
0.97
0.03
-0.94
-2.04
-3.23
-4.33
-5.15
-5.64
-5.99
-6.50
-7.48
-8.98
-10.80
-12.47
-13.49
-13.50
-12.43
-10.45
-7.83
-4.85
-1.62
1.78
5.25
8.54
11.33
13.36
14.53
15.01
15.11
15.14
15.23
15.33
15.31
15.08
14.67
14.16
13.62
13.02
12.23
11.19
9.93
8.57
7.27
6.12
5.05
3.96
2.82
1.74
0.87
0.35
0.07
-0.23
-0.88
-2.15
-4.02
-6.24
-8.43
-10.22
-11.43
-12.14
-12.63
-13.27
-14.39
-16.14
-18.43
-20.93
-23.20
-24.82
-25.53
-25.31
-24.23
-22.44
-20.02
-17.03
-13.54
-9.78
-6.08
-2.80
-0.20
1.69
3.01
3.98
4.79
5.51
6.16
6.70
7.13
7.50
7.84
8.16
8.44
8.63
8.71
8.65
8.48
8.16
7.69
7.05
6.26
5.38
4.51
3.72
3.08
2.56
2.07
1.47
0.60
-0.60
-2.09
-3.65
-5.06
-6.11
-6.78
-7.22
-7.73
-8.63
-10.11
-12.10
-14.28
-16.18
-17.31
-17.38
-16.32
-14.31
-11.61
-8.49
-5.12
-1.60
1.95
5.36
8.40
10.92
12.88
14.36
15.48
16.35
16.98
17.27
17.09
16.39
15.19
13.63
11.94
10.39
9.18
8.42
8.07
8.01
8.02
7.94
7.63
7.05
6.24
5.32
4.40
3.52
2.68
1.79
0.76
-0.45
-1.81
-3.21
-4.51
-5.67
-6.78
-8.02
-9.57
-11.54
-13.82
-16.13
-18.11
-19.43
-19.87
-19.39
-18.00
-15.81
-12.94
-9.56
-5.92
-2.33
0.88
3.45
5.31
6.53
7.35
8.08
9.00
10.25
11.80
13.43
14.80
15.66
15.86
15.50
14.80
14.04
13.38
12.84
12.36
11.84
11.25
10.59
9.86
9.06
8.13
7.01
5.69
4.22
2.70
1.24
-0.11
-1.34
-2.52
-3.79
-5.25
-6.99
-9.00
-11.20
-13.48
-15.69
-17.67
-19.25
-20.24
-20.48
-19.85
-18.37
-16.16
-13.41
-10.31
-7.05
-3.77
-0.64
2.13
4.35
5.89
6.78
7.16
7.28
7.30
7.26
7.07
6.64
5.98
5.30
4.85
4.77
5.00
5.23
5.13
4.54
3.55
2.45
1.52
0.80
0.15
-0.71
-1.93
-3.46
-5.10
-6.62
-7.91
-9.04
-10.08
-11.09
-12.01
-12.81
-13.58
-14.56
-16.02
-18.00
-20.23
-22.04
-22.72
-21.76
-19.11
-15.20
-10.74
-6.40
-2.62
0.47
2.95
4.99
6.62
7.83
8.57
8.84
8.77
8.54
8.26
8.01
7.73
7.36
6.91
6.44
6.08
5.92
5.93
5.96
5.79
5.21
4.07
2.37
0.25
-2.04
-4.16
-5.84
-6.92
-7.50
-7.89
-8.47
-9.57
-11.25
-13.25
-15.12
-16.39
-16.69
-15.93
-14.20
-11.65
-8.44
-4.70
-0.62
3.52
7.40
10.74
13.41
15.44
17.00
18.27
19.38
20.30
20.96
21.25
21.08
20.39
19.19
17.55
15.65
13.76
12.16
11.00
10.25
9.66
8.93
7.83
6.34
4.60
2.89
1.42
0.29
-0.62
-1.51
-2.64
-4.19
-6.21
-8.58
-11.07
-13.32
-14.90
-15.41
-14.58
-12.35
-8.96
-4.86
-0.59
3.37
6.81
9.69
12.13
14.22
15.97
17.31
18.15
18.51
18.52
18.35
18.13
17.91
17.63
17.21
16.56
15.66
14.55
13.31
12.05
10.83
9.67
8.54
7.37
6.06
4.59
2.95
1.21
-0.55
-2.23
-3.78
-5.14
-6.29
-7.26
-8.18
-9.20
-10.47
-12.09
-13.94
-15.78
-17.24
-17.97
-17.71
-16.34
-13.90
-10.55
-6.53
-2.07
2.53
7.00
11.06
14.49
17.19
19.16
20.53
21.55
22.46
23.45
24.61
25.86
27.00
27.83
28.25
28.32
28.33
28.58
29.27
30.37
31.57
32.50
32.91
32.83
32.59
32.61
33.19
34.35
35.91
37.57
39.10
40.46
41.75
43.17
44.92
47.14
49.89
53.18
57.01
61.42
66.39
71.74
77.01
81.70
85.61
89.24
93.91
101.06
111.23
123.01
133.06
137.36
132.92
119.21
98.16
73.00
46.77
21.45
-1.85
-22.14
-38.13
-48.56
-53.25
-53.65
-52.43
-52.34
-54.78
-59.55
-65.67
-72.84
-82.55
-98.16
-123.65
-161.57
-210.94
-266.13
-317.18
-351.91
-359.21
-332.84
-273.74
-190.19
-95.57
-4.87
68.86
116.84
135.99
128.97
103.12
68.46
35.17
10.72
-2.25
-6.27
-7.59
-12.91
-26.66
-49.98
-80.88
-115.27
-148.41
-175.86
-194.04
-200.67
-193.87
-172.91
-139.64
-99.26
-59.11
-26.94
-8.43
-5.53
-16.96
-38.24
-64.76
-94.94
-130.94
-175.40
-227.95
-282.72
-329.16
-356.47
-355.60
-323.15
-263.12
-185.59
-101.29
-18.11
61.29
143.60
226.12
300.02
357.35
396.35
419.36
429.66
427.80
411.48
377.04
322.33
252.51
180.14
122.60
88.34
80.16
93.10
115.87
134.33
136.79
119.38
85.68
42.74
-4.14
-53.16
-107.11
-166.16
-229.09
-291.59
-344.54
-376.43
-377.51
-344.15
-279.80
-194.73
-102.72
-17.60
50.65
98.42
128.04
145.22
155.94
164.54
172.18
177.32
176.92
168.85
153.59
134.00
113.59
94.20
75.42
55.15
31.76
5.67
-19.82
-39.96
-51.15
-53.20
-49.69
-46.08
-46.99
-53.77
-64.12
-73.32
-76.73
-71.98
-59.81
-43.29
-25.91
-10.01
4.02
17.33
31.51
47.55
65.29
83.44
100.18
113.79
123.13
127.71
127.60
123.10
114.60
102.46
87.09
69.01
48.93
27.71
6.35
-14.15
-32.87
-49.01
-62.05
-71.67
-77.87
-80.88
-81.11
-79.10
-75.40
-70.57
-65.10
-59.44
-53.93
-48.76
-43.99
-39.60
-35.56
-31.95
-28.94
-26.78
-25.65
-25.58
-26.38
-27.63
-28.84
-29.56
-29.49
-28.49
-26.60
-23.93
-20.65
-16.96
-13.09
-9.28
-5.80
-2.87
-0.66
0.78
1.59
2.02
2.49
3.36
4.90
7.16
9.91
12.79
15.39
17.36
18.55
18.98
18.78
18.10
17.04
15.72
14.28
12.93
11.87
11.24
11.01
10.97
10.87
10.50
9.79
8.85
7.81
6.75
5.62
4.29
2.61
0.55
-1.76
-4.13
-6.37
-8.41
-10.30
-12.19
-14.26
-16.60
-19.22
-21.99
-24.68
-27.04
-28.85
-29.94
-30.19
-29.52
-27.89
-25.36
-22.11
-18.42
-14.59
-10.91
-7.55
-4.60
-2.06
0.03
1.62
2.64
3.12
3.18
3.01
2.79
2.60
2.43
2.24
2.00
1.72
1.44
1.14
0.78
0.28
-0.36
-1.07
-1.68
-1.99
-1.89
-1.32
-0.31
1.09
2.86
4.98
7.40
10.00
12.60
15.03
17.22
19.20
21.07
23.05
25.28
27.89
30.87
34.09
37.30
40.15
42.25
43.31
43.17
41.88
39.67
36.83
33.63
30.26
26.75
23.04
19.02
14.61
9.81
4.77
-0.26
-4.98
-9.12
-12.55
-15.27
-17.38
-19.01
-20.26
-21.19
-21.84
-22.25
-22.46
-22.48
-22.25
-21.65
-20.60
-19.11
-17.34
-15.54
-13.94
-12.65
-11.57
-10.49
-9.16
-7.40
-5.15
-2.44
0.66
4.00
7.44
10.71
13.59
15.93
17.76
19.25
20.65
22.15
23.75
25.33
26.70
27.71
28.31
28.56
28.51
28.24
27.80
27.23
26.61
25.95
25.21
24.30
23.15
21.71
20.06
18.33
16.59
14.90
13.24
11.56
9.86
8.20
6.65
5.29
4.14
3.19
2.39
1.72
1.27
1.23
1.94
3.71
6.71
10.87
15.81
21.04
26.10
30.74
34.97
38.98
43.01
47.26
51.81
56.60
61.57
66.61
71.75
77.35
84.35
94.19
108.36
127.39
149.92
172.35
189.43
195.75
187.30
162.56
122.60
70.68
11.54
-49.16
-105.24
-150.77
-181.19
-194.46
-191.89
-177.67
-157.57
-136.95
-119.37
-106.17
-97.04
-90.96
-86.95
-84.37
-82.71
-81.39
-79.74
-77.17
-73.38
-68.50
-63.04
-57.62
-52.71
-48.46
-44.65
-40.85
-36.66
-31.87
-26.58
-21.12
-15.85
-11.07
-6.87
-3.21
-0.01
2.68
4.72
5.88
6.13
5.68
5.01
4.69
5.08
6.15
7.43
8.26
8.05
6.56
4.00
0.85
-2.31
-5.08
-7.30
-9.06
-10.57
-12.06
-13.69
-15.55
-17.62
-19.76
-21.79
-23.49
-24.73
-25.46
-25.77
-25.77
-25.51
-24.98
-24.08
-22.79
-21.20
-19.55
-18.16
-17.26
-16.92
-17.03
-17.35
-17.64
-17.79
-17.80
-17.78
-17.90
-18.29
-19.11
-20.48
-22.43
-24.96
-27.90
-30.95
-33.78
-36.08
-37.65
-38.44
-38.45
-37.73
-36.24
-33.85
-30.34
-25.47
-19.01
-10.83
-1.00
10.14
21.89
33.32
43.39
51.24
56.47
59.23
60.16
60.07
59.65
59.22
58.74
57.89
56.33
53.85
50.42
46.20
41.39
36.25
30.99
25.85
21.01
16.62
12.74
9.27
6.06
2.86
-0.54
-4.24
-8.20
-12.20
-15.97
-19.23
-21.81
-23.68
-25.00
-26.04
-27.06
-28.20
-29.39
-30.32
-30.56
-29.70
-27.51
-24.06
-19.70
-14.89
-10.10
-5.66
-1.72
1.70
4.55
6.80
8.36
9.22
9.45
9.24
8.86
8.52
8.38
8.41
8.51
8.52
8.34
7.95
7.40
6.78
6.13
5.43
4.64
3.73
2.72
1.67
0.68
-0.16
-0.82
-1.34
-1.82
-2.36
-3.11
-4.15
-5.56
-7.36
-9.48
-11.74
-13.87
-15.54
-16.47
-16.51
-15.74
-14.38
-12.80
-11.32
-10.16
-9.35
-8.80
-8.41
-8.08
-7.79
-7.56
-7.44
-7.39
-7.33
-7.08
-6.47
-5.37
-3.75
-1.73
0.49
2.65
4.54
6.09
7.30
8.29
9.17
10.00
10.80
11.55
12.19
12.67
12.93
12.88
12.43
11.50
10.12
8.40
6.55
4.71
2.95
1.18
-0.73
-2.93
-5.48
-8.21
-10.87
-13.04
-14.38
-14.63
-13.66
-11.51
-8.29
-4.19
0.55
5.60
10.58
15.06
18.68
21.22
22.66
23.21
23.17
22.84
22.40
21.97
21.58
21.28
21.10
21.01
20.93
20.70
20.17
19.29
18.15
16.96
15.91
15.07
14.33
13.47
12.29
10.70
8.74
6.59
4.40
2.31
0.41
-1.28
-2.72
-3.88
-4.77
-5.46
-6.06
-6.66
-7.28
-7.81
-8.06
-7.78
-6.77
-4.96
-2.40
0.70
4.08
7.40
10.37
12.74
14.39
15.28
15.50
15.16
14.41
13.36
12.11
10.70
9.21
7.69
6.16
4.68
3.29
2.04
0.99
0.11
-0.66
-1.45
-2.29
-3.16
-3.89
-4.33
-4.42
-4.26
-4.13
-4.32
-4.99
-6.08
-7.33
-8.46
-9.29
-9.83
-10.23
-10.66
-11.21
-11.82
-12.29
-12.40
-11.92
-10.70
-8.68
-5.88
-2.41
1.53
5.68
9.79
13.65
17.12
20.10
22.49
24.17
25.09
25.26
24.83
23.99
22.96
21.85
20.72
19.57
18.42
17.25
16.10
14.96
13.85
12.75
11.72
10.79
9.97
9.20
8.39
7.45
6.36
5.18
4.02
2.98
2.07
1.24
0.39
-0.53
-1.51
-2.50
-3.41
-4.19
-4.89
-5.59
-6.44
-7.53
-8.87
-10.30
-11.57
-12.35
-12.34
-11.38
-9.48
-6.83
-3.70
-0.43
2.74
5.55
7.86
9.54
10.57
10.94
10.75
10.12
9.18
8.03
6.70
5.21
3.57
1.87
0.22
-1.23
-2.41
-3.29
-3.93
-4.41
-4.82
-5.19
-5.55
-5.91
-6.27
-6.66
-7.11
-7.59
-8.08
-8.52
-8.86
-9.09
-9.19
-9.22
-9.22
-9.26
-9.41
-9.67
-10.05
-10.53
-11.09
-11.68
-12.30
-12.86
-13.24
-13.29
-12.80
-11.63
-9.71
-7.10
-3.93
-0.44
3.10
6.45
9.45
11.98
14.04
15.63
16.75
17.40
17.55
17.20
16.36
15.16
13.76
12.37
11.15
10.20
9.53
9.08
8.75
8.46
8.16
7.81
7.45
7.10
6.82
6.68
6.77
7.11
7.67
8.34
8.94
9.29
9.32
9.03
8.50
7.81
6.91
5.62
3.66
0.78
-3.20
-8.26
-14.24
-20.83
-27.63
-34.19
-40.02
-44.68
-47.82
-49.27
-49.09
-47.51
-44.88
-41.55
-37.81
-33.81
-29.67
-25.41
-21.03
-16.49
-11.78
-6.94
-2.07
2.60
6.80
10.25
12.80
14.48
15.42
15.86
15.97
15.87
15.60
15.21
14.78
14.43
14.26
14.31
14.48
14.57
14.37
13.70
12.55
11.00
9.21
7.24
5.07
2.59
-0.26
-3.47
-6.86
-10.20
-13.28
-16.03
-18.47
-20.61
-22.33
-23.33
-23.21
-21.71
-18.85
-14.97
-10.63
-6.38
-2.55
0.78
3.70
6.35
8.78
10.96
12.81
14.29
15.46
16.38
17.15
17.79
18.25
18.44
18.32
17.91
17.29
16.60
15.97
15.49
15.16
14.97
14.87
14.82
14.82
14.88
15.00
15.13
15.20
15.12
14.82
14.25
13.38
12.24
10.89
9.45
8.02
6.66
5.34
3.94
2.29
0.29
-2.04
-4.47
-6.66
-8.22
-8.81
-8.29
-6.72
-4.34
-1.56
1.21
3.63
5.49
6.73
7.38
7.57
7.39
6.89
6.08
4.95
3.49
1.71
-0.31
-2.43
-4.46
-6.18
-7.46
-8.28
-8.76
-9.06
-9.36
-9.74
-10.18
-10.62
-10.92
-11.06
-10.99
-10.70
-10.14
-9.28
-8.15
-6.90
-5.73
-4.91
-4.60
-4.83
-5.48
-6.31
-7.11
-7.73
-8.14
-8.40
-8.66
-9.10
-9.84
-10.88
-12.09
-13.17
-13.75
-13.45
-12.02
-9.40
-5.73
-1.34
3.38
7.98
12.09
15.41
17.74
19.04
19.40
19.05
18.27
17.33
16.43
15.61
14.82
13.93
12.78
11.31
9.59
7.74
5.89
4.11
2.36
0.55
-1.36
-3.35
-5.28
-6.93
-8.20
-9.05
-9.57
-9.92
-10.25
-10.66
-11.17
-11.77
-12.44
-13.20
-14.09
-15.10
-16.21
-17.30
-18.24
-18.95
-19.42
-19.73
-20.00
-20.29
-20.56
-20.57
-20.03
-18.65
-16.26
-12.92
-8.92
-4.67
-0.63
2.85
5.59
7.64
9.12
10.20
10.98
11.46
11.64
11.51
11.13
10.58
9.95
9.31
8.65
7.95
7.17
6.31
5.38
4.45
3.59
2.87
2.31
1.89
1.56
1.26
0.93
0.56
0.12
-0.36
-0.85
-1.35
-1.87
-2.42
-3.04
-3.75
-4.54
-5.39
-6.25
-7.07
-7.83
-8.53
-9.21
-9.87
-10.49
-10.91
-10.90
-10.23
-8.72
-6.35
-3.31
0.13
3.66
7.09
10.35
13.39
16.17
18.54
20.36
21.53
22.07
22.15
22.01
21.85
21.76
21.73
21.72
21.67
21.56
21.38
21.11
20.75
20.29
19.79
19.26
18.76
18.29
17.82
17.26
16.49
15.38
13.91
12.12
10.19
8.35
6.74
5.41
4.21
2.90
1.27
-0.72
-2.95
-5.18
-7.24
-9.11
-10.90
-12.80
-14.87
-16.99
-18.94
-20.46
-21.38
-21.67
-21.37
-20.49
-19.02
-16.96
-14.44
-11.70
-9.13
-7.09
-5.75
-5.08
-4.88
-4.88
-4.88
-4.81
-4.68
-4.50
-4.28
-4.04
-3.81
-3.69
-3.79
-4.13
-4.65
-5.15
-5.44
-5.39
-5.06
-4.56
-4.08
-3.73
-3.53
-3.42
-3.30
-3.12
-2.85
-2.52
-2.19
-1.91
-1.73
-1.68
-1.79
-2.07
-2.57
-3.33
-4.37
-5.64
-7.05
-8.50
-9.89
-11.18
-12.38
-13.49
-14.43
-15.06
-15.18
-14.65
-13.44
-11.69
-9.61
-7.45
-5.39
-3.51
-1.84
-0.39
0.84
1.80
2.47
2.80
2.85
2.67
2.39
2.13
1.98
1.98
2.11
2.30
2.45
2.47
2.36
2.12
1.79
1.41
1.03
0.64
0.30
0.02
-0.20
-0.38
-0.57
-0.85
-1.27
-1.89
-2.72
-3.73
-4.88
-6.09
-7.31
-8.47
-9.58
-10.70
-11.87
-13.12
-14.43
-15.72
-16.91
-17.88
-18.53
-18.71
-18.26
-17.09
-15.16
-12.58
-9.60
-6.48
-3.46
-0.62
2.03
4.51
6.76
8.65
10.05
10.89
11.22
11.22
11.13
11.09
11.12
11.14
11.02
10.70
10.22
9.67
9.20
8.88
8.70
8.60
8.50
8.30
7.95
7.42
6.75
5.96
5.12
4.31
3.56
2.88
2.24
1.56
0.78
-0.12
-1.11
-2.12
-3.12
-4.11
-5.12
-6.24
-7.51
-8.92
-10.37
-11.73
-12.81
-13.41
-13.38
-12.58
-10.95
-8.51
-5.43
-1.95
1.62
5.02
8.03
10.54
12.55
14.09
15.23
16.06
16.62
16.94
17.01
16.86
16.53
16.09
15.60
15.11
14.55
13.88
13.00
11.91
10.67
9.40
8.23
7.16
6.13
5.01
3.71
2.20
0.53
-1.17
-2.82
-4.38
-5.89
-7.39
-8.86
-10.24
-11.40
-12.26
-12.81
-13.12
-13.28
-13.33
-13.23
-12.94
-12.41
-11.72
-10.97
-10.27
-9.58
-8.69
-7.27
-5.05
-1.93
1.87
5.95
9.87
13.27
16.02
18.12
19.63
20.56
20.92
20.70
19.99
18.98
17.90
16.97
16.29
15.85
15.56
15.27
14.86
14.28
13.53
12.70
11.89
11.20
10.66
10.20
9.71
9.01
7.98
6.64
5.08
3.49
2.02
0.70
-0.56
-1.93
-3.56
-5.47
-7.54
-9.54
-11.26
-12.64
-13.76
-14.82
-16.03
-17.48
-19.12
-20.76
-22.12
-22.90
-22.85
-21.80
-19.75
-16.83
-13.30
-9.52
-5.86
-2.63
-0.06
1.71
2.61
2.67
1.99
0.75
-0.80
-2.39
-3.82
-4.98
-5.90
-6.68
-7.45
-8.27
-9.12
-9.94
-10.70
-11.42
-12.17
-13.02
-13.97
-14.95
-15.85
-16.56
-17.04
-17.30
-17.37
-17.25
-16.91
-16.29
-15.35
-14.12
-12.71
-11.24
-9.83
-8.58
-7.48
-6.52
-5.66
-4.88
-4.20
-3.61
-3.08
-2.51
-1.76
-0.68
0.82
2.76
5.04
7.48
9.88
12.03
13.82
15.21
16.22
16.88
17.20
17.16
16.79
16.16
15.39
14.64
13.98
13.45
13.02
12.62
12.24
11.89
11.57
11.25
10.84
10.27
9.48
8.50
7.40
6.28
5.15
4.04
2.91
1.72
0.50
-0.73
-1.90
-2.98
-3.98
-5.00
-6.14
-7.52
-9.15
-10.97
-12.81
-14.43
-15.62
-16.23
-16.16
-15.39
-13.90
-11.72
-8.87
-5.50
-1.84
1.79
5.03
7.63
9.49
10.68
11.41
11.89
12.24
12.49
12.59
12.48
12.20
11.86
11.58
11.46
11.50
11.66
11.82
11.88
11.71
11.28
10.54
9.56
8.37
6.99
5.38
3.49
1.31
-1.14
-3.75
-6.38
-8.92
-11.33
-13.61
-15.83
-18.04
-20.26
-22.51
-24.80
-27.16
-29.58
-32.02
-34.30
-36.21
-37.42
-37.61
-36.54
-34.06
-30.19
-25.13
-19.21
-12.89
-6.63
-0.85
4.13
8.12
11.04
12.94
13.92
14.10
13.66
12.83
11.89
11.13
10.82
11.14
12.11
13.69
15.75
18.18
20.84
23.62
26.38
28.98
31.31
33.26
34.72
35.52
35.44
34.24
31.77
28.00
23.10
17.28
10.83
4.01
-2.95
-9.81
-16.38
-22.48
-28.06
-33.15
-37.80
-42.01
-45.65
-48.50
-50.33
-50.99
-50.49
-48.95
-46.55
-43.49
-39.91
-35.94
-31.70
-27.31
-22.84
-18.28
-13.59
-8.68
-3.52
1.86
7.39
12.93
18.38
23.64
28.61
33.19
37.25
40.61
43.07
44.50
44.89
44.31
42.99
41.13
38.87
36.30
33.40
30.18
26.65
22.85
18.87
14.77
10.65
6.56
2.61
-1.11
-4.55
-7.68
-10.54
-13.15
-15.46
-17.39
-18.76
-19.41
-19.23
-18.24
-16.55
-14.41
-12.09
-9.87
-7.95
-6.48
-5.51
-5.04
-5.02
-5.29
-5.66
-5.87
-5.71
-5.11
-4.16
-3.04
-1.95
-0.96
-0.02
1.04
2.33
3.86
5.50
7.06
8.39
9.42
10.22
10.87
11.43
11.91
12.27
12.44
12.38
12.08
11.52
10.70
9.59
8.19
6.49
4.58
2.60
0.69
-1.03
-2.54
-3.85
-5.06
-6.20
-7.22
-8.01
-8.39
-8.22
-7.44
-6.11
-4.38
-2.47
-0.54
1.29
3.05
4.82
6.63
8.39
9.89
10.86
11.11
10.64
9.68
8.55
7.58
6.93
6.62
6.56
6.64
6.77
6.93
7.10
7.26
7.40
7.54
7.71
7.95
8.27
8.62
8.91
9.07
9.02
8.72
8.15
7.26
6.04
4.45
2.55
0.41
-1.83
-4.03
-6.06
-7.90
-9.56
-11.12
-12.70
-14.29
-15.81
-16.99
-17.55
-17.29
-16.18
-14.37
-12.10
-9.65
-7.20
-4.88
-2.78
-0.98
0.47
1.51
2.20
2.61
2.86
3.01
3.10
3.11
3.04
2.91
2.71
2.49
2.27
2.06
1.86
1.64
1.38
1.04
0.65
0.25
-0.11
-0.39
-0.60
-0.81
-1.10
-1.50
-2.02
-2.56
-3.05
-3.42
-3.71
-4.03
-4.53
-5.30
-6.32
-7.44
-8.44
-9.19
-9.69
-10.12
-10.67
-11.49
-12.55
-13.72
-14.75
-15.47
-15.74
-15.48
-14.64
-13.17
-11.13
-8.69
-6.17
-3.91
-2.14
-0.92
-0.10
0.55
1.27
2.14
3.12
4.07
4.91
5.58
6.10
6.52
6.86
7.10
7.16
7.04
6.74
6.38
6.08
6.00
6.17
6.57
7.05
7.43
7.57
7.41
7.02
6.51
5.99
5.53
5.04
4.36
3.24
1.49
-0.96
-4.04
-7.53
-11.09
-14.39
-17.13
-19.15
-20.46
-21.18
-21.52
-21.67
-21.71
-21.59
-21.12
-20.05
-18.19
-15.49
-12.07
-8.22
-4.25
-0.44
3.06
6.17
8.91
11.27
13.25
14.87
16.16
17.22
18.16
19.06
19.92
20.64
21.08
21.12
20.71
19.95
19.04
18.22
17.69
17.50
17.56
17.66
17.59
17.23
16.61
15.85
15.10
14.49
14.01
13.57
13.06
12.39
11.54
10.54
9.49
8.46
7.50
6.63
5.84
5.08
4.33
3.58
2.83
2.10
1.42
0.88
0.59
0.64
1.06
1.83
2.81
3.91
5.08
6.39
7.96
9.89
12.15
14.50
16.63
18.18
18.94
18.92
18.22
17.06
15.59
13.93
12.16
10.41
8.81
7.47
6.44
5.60
4.80
3.85
2.65
1.22
-0.31
-1.79
-3.05
-4.05
-4.81
-5.42
-6.03
-6.71
-7.46
-8.18
-8.78
-9.19
-9.41
-9.55
-9.68
-9.85
-10.04
-10.19
-10.33
-10.57
-11.05
-11.86
-12.93
-14.06
-15.02
-15.63
-15.87
-15.80
-15.55
-15.20
-14.78
-14.31
-13.70
-12.86
-11.62
-9.84
-7.48
-4.61
-1.53
1.42
3.87
5.62
6.65
7.14
7.32
7.41
7.55
7.74
7.89
7.89
7.69
7.30
6.79
6.20
5.54
4.75
3.75
2.54
1.21
-0.08
-1.24
-2.26
-3.21
-4.21
-5.26
-6.31
-7.18
-7.78
-8.11
-8.28
-8.49
-8.97
-9.81
-10.98
-12.35
-13.70
-14.86
-15.71
-16.30
-16.73
-17.15
-17.64
-18.23
-18.85
-19.39
-19.72
-19.70
-19.19
-18.08
-16.32
-13.96
-11.19
-8.23
-5.30
-2.57
-0.12
2.00
3.78
5.21
6.33
7.19
7.86
8.40
8.83
9.13
9.30
9.35
9.32
9.27
9.21
9.12
8.96
8.72
8.42
8.08
7.70
7.25
6.73
6.12
5.46
4.81
4.16
3.51
2.78
1.99
1.16
0.34
-0.42
-1.18
-2.02
-3.09
-4.41
-5.94
-7.53
-9.03
-10.37
-11.53
-12.49
-13.18
-13.41
-12.98
-11.75
-9.72
-7.06
-4.03
-0.89
2.15
4.98
7.54
9.78
11.69
13.26
14.55
15.68
16.74
17.79
18.78
19.61
20.16
20.37
20.31
20.10
19.86
19.62
19.34
18.93
18.32
17.55
16.73
16.03
15.56
15.35
15.34
15.40
15.39
15.23
14.86
14.30
13.55
12.59
11.35
9.77
7.82
5.56
3.15
0.79
-1.36
-3.28
-5.06
-6.84
-8.71
-10.59
-12.23
-13.30
-13.50
-12.77
-11.25
-9.28
-7.26
-5.47
-4.02
-2.83
-1.78
-0.78
0.18
1.01
1.59
1.86
1.86
1.74
1.69
1.82
2.16
2.55
2.79
2.69
2.17
1.36
0.45
-0.36
-0.96
-1.38
-1.74
-2.13
-2.56
-2.95
-3.19
-3.23
-3.14
-3.04
-3.08
-3.34
-3.82
-4.42
-5.07
-5.70
-6.28
-6.87
-7.54
-8.35
-9.30
-10.33
-11.33
-12.13
-12.56
-12.45
-11.71
-10.34
-8.49
-6.41
-4.39
-2.68
-1.44
-0.66
-0.22
0.04
0.29
0.56
0.82
0.98
0.92
0.61
0.07
-0.66
-1.52
-2.43
-3.33
-4.17
-4.90
-5.53
-6.09
-6.66
-7.28
-7.95
-8.60
-9.13
-9.46
-9.57
-9.45
-9.14
-8.72
-8.26
-7.89
-7.71
-7.77
-8.06
-8.48
-8.91
-9.31
-9.71
-10.22
-10.94
-11.85
-12.86
-13.78
-14.44
-14.69
-14.43
-13.59
-12.15
-10.15
-7.70
-5.04
-2.41
-0.04
1.95
3.58
4.95
6.21
7.43
8.63
9.78
10.81
11.68
12.32
12.70
12.78
12.56
12.09
11.45
10.74
10.02
9.33
8.64
7.90
7.08
6.20
5.28
4.40
3.61
2.92
2.33
1.78
1.19
0.50
-0.32
-1.27
-2.29
-3.33
-4.38
-5.47
-6.66
-7.93
-9.23
-10.43
-11.42
-12.10
-12.45
-12.48
-12.17
-11.51
-10.45
-8.96
-7.05
-4.78
-2.28
0.32
2.88
5.27
7.39
9.23
10.78
12.06
13.14
14.02
14.74
15.29
15.68
15.91
16.02
16.03
16.03
16.01
15.98
15.84
15.52
14.97
14.25
13.49
12.83
12.29
11.83
11.25
10.40
9.24
7.86
6.49
5.31
4.41
3.70
3.00
2.14
1.05
-0.24
-1.61
-2.97
-4.29
-5.58
-6.87
-8.17
-9.45
-10.68
-11.90
-13.18
-14.55
-15.97
-17.23
-18.06
-18.15
-17.36
-15.66
-13.22
-10.37
-7.44
-4.74
-2.46
-0.64
0.78
1.92
2.93
3.83
4.64
5.31
5.86
6.35
6.85
7.41
7.99
8.47
8.71
8.60
8.14
7.40
6.51
5.59
4.71
3.90
3.18
2.57
2.14
1.93
1.91
1.98
2.05
1.99
1.76
1.37
0.85
0.23
-0.51
-1.41
-2.49
-3.72
-5.02
-6.28
-7.41
-8.38
-9.23
-10.06
-10.98
-12.08
-13.39
-14.83
-16.18
-17.19
-17.59
-17.24
-16.13
-14.40
-12.29
-10.12
-8.14
-6.55
-5.40
-4.65
-4.12
-3.61
-2.95
-2.08
-1.08
-0.15
0.52
0.82
0.73
0.38
-0.10
-0.58
-1.05
-1.50
-1.98
-2.50
-3.03
-3.52
-3.95
-4.32
-4.69
-5.10
-5.53
-5.89
-6.00
-5.76
-5.16
-4.32
-3.48
-2.91
-2.80
-3.24
-4.19
-5.52
-7.05
-8.57
-9.90
-10.93
-11.62
-12.07
-12.44
-12.92
-13.66
-14.64
-15.73
-16.68
-17.17
-16.96
-15.90
-14.06
-11.63
-8.97
-6.43
-4.26
-2.56
-1.26
-0.19
0.80
1.83
2.91
4.02
5.11
6.11
7.00
7.74
8.27
8.55
8.53
8.19
7.58
6.82
6.09
5.55
5.35
5.51
5.93
6.45
6.93
7.27
7.51
7.75
8.09
8.57
9.14
9.67
9.97
9.90
9.41
8.55
7.48
6.37
5.31
4.33
3.40
2.42
1.33
0.08
-1.35
-2.94
-4.61
-6.20
-7.50
-8.26
-8.28
-7.47
-5.90
-3.77
-1.35
1.10
3.43
5.59
7.57
9.37
10.97
12.35
13.52
14.52
15.43
16.29
17.08
17.72
18.09
18.16
18.00
17.72
17.44
17.18
16.89
16.50
16.00
15.46
14.96
14.56
14.20
13.76
13.16
12.38
11.53
10.71
9.96
9.22
8.39
7.37
6.19
4.93
3.66
2.39
1.03
-0.52
-2.29
-4.21
-6.14
-7.93
-9.50
-10.87
-12.16
-13.49
-14.93
-16.48
-18.01
-19.30
-20.11
-20.21
-19.46
-17.87
-15.62
-12.97
-10.28
-7.89
-6.04
-4.87
-4.36
-4.32
-4.54
-4.77
-4.88
-4.85
-4.76
-4.72
-4.79
-4.99
-5.29
-5.66
-6.19
-6.97
-8.11
-9.57
-11.19
-12.68
-13.74
-14.19
-13.94
-13.04
-11.60
-9.71
-7.39
-4.64
-1.44
2.15
5.97
9.78
13.22
15.99
17.83
18.67
18.58
17.76
16.43
14.77
12.90
10.88
8.75
6.53
4.24
1.89
-0.50
-2.90
-5.20
-7.21
-8.71
-9.47
-9.33
-8.32
-6.60
-4.49
-2.32
-0.35
1.26
2.50
3.43
4.11
4.55
4.77
4.78
4.64
4.47
4.38
4.45
4.68
4.96
5.20
5.25
5.05
4.59
3.87
2.97
1.98
1.00
0.14
-0.55
-1.01
-1.22
-1.19
-1.02
-0.86
-0.86
-1.16
-1.80
-2.74
-3.87
-5.08
-6.30
-7.48
-8.65
-9.80
-10.91
-11.90
-12.67
-13.19
-13.47
-13.64
-13.88
-14.33
-15.02
-15.84
-16.49
-16.62
-15.90
-14.18
-11.50
-8.07
-4.18
-0.14
3.80
7.45
10.68
13.41
15.62
17.33
18.59
19.46
20.02
20.33
20.46
20.46
20.36
20.19
19.93
19.50
18.84
17.96
16.92
15.87
14.95
14.26
13.82
13.56
13.39
13.28
13.18
13.10
12.96
12.68
12.11
11.15
9.75
7.95
5.86
3.59
1.22
-1.18
-3.55
-5.83
-7.99
-10.00
-11.91
-13.79
-15.70
-17.66
-19.59
-21.35
-22.74
-23.54
-23.57
-22.72
-21.01
-18.54
-15.56
-12.35
-9.21
-6.32
-3.77
-1.50
0.54
2.44
4.19
5.74
7.02
8.01
8.74
9.30
9.79
10.22
10.53
10.60
10.28
9.51
8.31
6.80
5.09
3.27
1.34
-0.72
-2.93
-5.26
-7.63
-10.00
-12.32
-14.61
-16.79
-18.76
-20.32
-21.28
-21.52
-21.05
-19.98
-18.47
-16.61
-14.46
-12.01
-9.30
-6.44
-3.64
-1.13
0.89
2.24
2.84
2.75
2.11
1.22
0.47
0.22
0.70
1.91
3.66
5.62
7.51
9.16
10.56
11.76
12.82
13.74
14.45
14.90
15.08
15.01
14.70
14.15
13.36
12.32
11.09
9.74
8.34
6.93
5.53
4.15
2.81
1.62
0.66
0.01
-0.32
-0.38
-0.20
0.25
1.03
2.24
3.82
5.61
7.30
8.56
9.17
9.08
8.41
7.36
6.11
4.79
3.44
2.09
0.73
-0.67
-2.10
-3.59
-5.14
-6.72
-8.25
-9.59
-10.55
-10.88
-10.36
-8.88
-6.52
-3.56
-0.47
2.29
4.39
5.70
6.38
6.64
6.71
6.72
6.66
6.49
6.18
5.75
5.26
4.77
4.30
3.81
3.23
2.53
1.71
0.85
0.06
-0.54
-0.87
-0.91
-0.71
-0.38
-0.10
-0.00
-0.19
-0.67
-1.36
-2.15
-2.92
-3.64
-4.35
-5.12
-6.05
-7.16
-8.43
-9.73
-10.91
-11.85
-12.55
-13.08
-13.58
-14.17
-14.88
-15.63
-16.27
-16.60
-16.46
-15.74
-14.40
-12.46
-10.03
-7.27
-4.38
-1.58
0.94
3.10
4.89
6.36
7.55
8.54
9.36
10.07
10.71
11.33
11.91
12.42
12.74
12.80
12.54
12.02
11.34
10.63
9.98
9.43
8.99
8.59
8.22
7.82
7.40
6.93
6.39
5.77
5.04
4.23
3.41
2.59
1.75
0.80
-0.33
-1.68
-3.20
-4.76
-6.23
-7.57
-8.85
-10.15
-11.53
-12.98
-14.37
-15.61
-16.70
-17.69
-18.59
-19.26
-19.40
-18.67
-16.94
-14.37
-11.43
-8.71
-6.65
-5.43
-4.94
-4.93
-5.22
-5.68
-6.26
-6.83
-7.20
-7.17
-6.64
-5.69
-4.47
-3.18
-1.85
-0.36
1.47
3.82
6.68
9.86
13.02
15.79
17.86
19.09
19.48
19.14
18.25
16.99
15.51
13.97
12.46
11.07
9.77
8.51
7.16
5.63
3.91
2.07
0.26
-1.37
-2.70
-3.69
-4.40
-4.92
-5.36
-5.81
-6.35
-6.98
-7.66
-8.27
-8.64
-8.56
-7.87
-6.53
-4.65
-2.53
-0.54
0.92
1.63
1.61
1.01
0.11
-0.88
-1.85
-2.83
-3.89
-5.04
-6.22
-7.25
-7.91
-7.98
-7.31
-5.87
-3.73
-1.06
1.95
5.09
8.14
10.87
13.08
14.64
15.49
15.69
15.36
14.64
13.68
12.54
11.25
9.81
8.24
6.59
4.92
3.25
1.55
-0.24
-2.18
-4.26
-6.40
-8.51
-10.49
-12.30
-14.01
-15.70
-17.50
-19.43
-21.44
-23.39
-25.05
-26.14
-26.42
-25.72
-24.08
-21.71
-18.96
-16.21
-13.73
-11.64
-9.91
-8.45
-7.19
-6.11
-5.20
-4.48
-3.94
-3.54
-3.27
-3.13
-3.12
-3.25
-3.43
-3.51
-3.37
-2.92
-2.18
-1.31
-0.47
0.21
0.66
0.91
1.03
1.07
1.04
0.94
0.81
0.69
0.66
0.74
0.88
0.94
0.78
0.31
-0.46
-1.45
-2.53
-3.65
-4.77
-5.94
-7.15
-8.37
-9.52
-10.56
-11.49
-12.32
-13.05
-13.58
-13.71
-13.24
-12.01
-9.99
-7.34
-4.29
-1.14
1.86
4.54
6.85
8.82
10.57
12.24
13.93
15.62
17.27
18.79
20.15
21.39
22.60
23.85
25.13
26.35
27.42
28.23
28.76
28.98
28.92
28.59
28.04
27.35
26.65
26.07
25.67
25.45
25.34
25.21
24.96
24.51
23.86
23.02
21.98
20.74
19.34
17.86
16.41
15.10
14.01
13.19
12.64
12.29
12.05
11.89
11.76
11.58
11.17
10.44
9.42
8.25
7.20
6.52
6.56
7.41
8.81
10.14
10.83
10.59
9.45
7.69
5.66
4.17
3.77
4.44
5.61
6.55
6.69
5.76
3.72
0.68
-2.25
-4.00
-4.13
-2.87
-0.74
1.88
4.82
7.96
11.18
15.49
21.74
30.05
39.70
49.73
59.46
68.53
76.77
77.18
65.70
43.45
16.51
-8.70
-28.76
-43.16
-52.74
-58.57
-61.56
-61.35
-57.82
-51.70
-44.57
-38.06
-33.12
-29.94
-28.28
-27.74
-27.13
-25.53
-22.67
-19.06
-15.42
-12.34
-10.15
-9.09
-9.27
-10.04
-10.64
-10.54
-9.58
-7.90
-5.80
-3.77
-2.42
-2.32
-3.37
-4.90
-5.84
-5.20
-2.64
1.19
4.65
5.71
2.92
-3.80
-13.27
-23.73
-33.88
-42.73
-49.73
-54.16
-55.01
-51.33
-42.95
-31.07
-18.08
-6.77
0.83
4.16
4.06
2.07
-0.35
-2.35
-3.61
-4.10
-3.76
-2.45
-0.23
2.58
5.37
7.37
7.94
6.86
4.38
1.28
-1.43
-2.81
-2.32
-0.02
3.45
7.11
10.11
11.91
12.44
12.03
11.11
10.14
9.37
8.83
8.47
8.15
7.82
7.42
6.97
6.48
5.92
5.71
6.00
6.90
8.42
10.49
13.04
15.96
19.12
22.36
25.37
27.59
28.51
27.85
25.80
23.06
20.58
19.11
18.85
19.32
19.55
18.58
15.95
11.81
6.69
1.18
-4.23
-9.24
-13.53
-16.98
-19.47
-20.93
-21.48
-21.49
-21.43
-21.58
-21.89
-22.05
-22.12
-22.29
-22.74
-23.49
-24.44
-25.32
-25.70
-25.02
-22.79
-19.42
-15.62
-11.96
-8.68
-5.88
-3.68
-2.17
-1.36
-1.25
-2.66
-6.31
-12.31
-20.02
-28.70
-37.78
-47.04
-56.45
-60.89
-57.22
-45.98
-31.27
-17.27
-6.25
1.43
6.35
9.34
11.04
11.09
9.12
5.38
0.99
-2.84
-5.15
-5.53
-4.03
-1.12
1.98
4.14
4.33
3.33
1.94
0.83
0.31
0.54
1.51
2.72
3.69
4.23
4.52
4.67
4.71
4.55
4.15
3.61
2.93
2.26
1.81
1.84
2.29
2.98
3.31
2.72
0.85
-2.30
-6.34
-10.59
-14.30
-17.03
-18.63
-19.25
-19.06
-18.20
-16.65
-14.33
-11.23
-7.50
-3.53
0.07
2.63
3.62
2.76
0.11
-4.00
-9.02
-14.38
-19.58
-24.27
-28.22
-31.28
-33.32
-34.22
-33.85
-32.12
-29.00
-24.55
-18.98
-12.62
-5.90
0.70
6.73
11.85
15.93
18.97
21.12
22.56
23.39
23.59
23.01
21.47
18.86
15.28
11.13
7.04
3.75
1.89
1.78
3.32
6.06
9.33
12.46
14.98
16.72
17.82
18.58
19.42
20.60
22.24
24.23
26.29
28.12
29.45
30.07
29.86
28.70
26.56
23.47
19.65
15.51
11.55
8.28
6.02
4.84
4.52
4.65
4.76
4.42
3.41
1.73
-0.34
-2.37
-3.90
-4.64
-4.59
-3.97
-3.20
-2.75
-2.97
-4.07
-6.04
-8.69
-11.64
-14.46
-16.82
-18.59
-19.95
-21.34
-23.27
-26.01
-29.40
-32.67
-34.69
-34.32
-30.92
-24.56
-16.12
-6.94
1.60
8.52
13.42
16.37
17.72
17.90
17.28
16.24
15.09
14.10
13.33
12.65
11.74
10.28
8.06
5.09
1.54
-2.25
-5.93
-9.10
-11.42
-12.62
-12.58
-11.42
-9.43
-6.97
-4.36
-1.74
0.86
3.49
6.13
8.68
10.94
12.67
13.72
14.04
13.70
12.87
11.77
10.59
9.52
8.66
8.07
7.72
7.55
7.41
7.16
6.75
6.21
5.79
5.83
6.70
8.70
11.86
15.90
20.29
24.38
27.63
29.72
30.67
30.68
30.03
28.91
27.36
25.27
22.53
19.16
15.32
11.37
7.71
4.64
2.27
0.45
-1.15
-2.82
-4.75
-6.84
-8.79
-10.24
-10.95
-11.00
-10.67
-10.37
-10.35
-10.56
-10.68
-10.29
-9.15
-7.32
-5.21
-3.36
-2.25
-2.10
-2.86
-4.29
-6.06
-7.89
-9.50
-10.75
-11.57
-12.16
-12.82
-13.88
-15.43
-17.15
-18.35
-18.20
-16.13
-12.12
-6.71
-0.84
4.61
9.08
12.43
14.84
16.58
17.82
18.58
18.81
18.46
17.60
16.40
15.06
13.75
12.58
11.59
10.78
10.09
9.39
8.56
7.48
6.13
4.61
3.14
2.00
1.38
1.31
1.54
1.68
1.27
0.02
-2.05
-4.65
-7.34
-9.69
-11.48
-12.73
-13.60
-14.29
-14.92
-15.53
-16.18
-17.04
-18.38
-20.48
-23.46
-27.15
-31.04
-34.43
-36.54
-36.77
-34.80
-30.66
-24.75
-17.76
-10.55
-3.97
1.32
5.00
7.14
8.06
8.20
7.84
7.10
5.93
4.31
2.43
0.70
-0.33
-0.23
1.09
3.32
5.83
7.93
9.22
9.65
9.55
9.36
9.44
9.87
10.46
10.93
11.02
10.76
10.38
10.27
10.72
11.76
13.11
14.28
14.77
14.27
12.77
10.58
8.12
5.84
3.98
2.52
1.21
-0.30
-2.31
-4.83
-7.57
-9.88
-11.02
-10.46
-8.11
-4.39
-0.07
4.07
7.55
10.24
12.32
14.04
15.50
16.61
17.22
17.24
16.74
15.98
15.30
14.98
15.16
15.79
16.70
17.62
18.30
18.54
18.31
17.71
16.95
16.18
15.42
14.58
13.46
11.96
10.12
8.15
6.34
4.94
4.03
3.56
3.30
2.97
2.35
1.36
0.05
-1.37
-2.70
-3.79
-4.70
-5.61
-6.78
-8.41
-10.47
-12.66
-14.47
-15.32
-14.80
-12.79
-9.49
-5.36
-0.97
3.19
6.77
9.58
11.59
12.81
13.30
13.16
12.58
11.78
10.97
10.24
9.58
8.95
8.32
7.77
7.40
7.23
7.18
7.07
6.70
5.96
4.88
3.55
2.06
0.44
-1.26
-2.95
-4.39
-5.23
-5.16
-4.05
-2.07
0.33
2.55
4.01
4.34
3.43
1.45
-1.26
-4.30
-7.31
-10.06
-12.43
-14.38
-15.94
-17.21
-18.35
-19.54
-20.86
-22.22
-23.22
-23.36
-22.13
-19.31
-15.06
-9.93
-4.65
0.11
3.98
6.91
9.13
10.91
12.39
13.56
14.25
14.33
13.77
12.73
11.46
10.22
9.22
8.60
8.51
9.10
10.45
12.50
14.92
17.22
18.88
19.56
19.21
18.06
16.41
14.51
12.53
10.59
8.82
7.41
6.46
5.83
5.13
3.80
1.39
-2.18
-6.50
-10.86
-14.54
-17.06
-18.41
-18.91
-19.12
-19.53
-20.41
-21.78
-23.38
-24.81
-25.61
-25.42
-24.11
-21.85
-19.01
-16.04
-13.31
-10.97
-9.00
-7.27
-5.69
-4.20
-2.84
-1.62
-0.48
0.67
1.98
3.53
5.30
7.20
9.08
10.85
12.47
13.97
15.36
16.59
17.51
17.89
17.50
16.24
14.20
11.71
9.21
7.17
5.93
5.55
5.81
6.27
6.46
6.03
4.89
3.18
1.18
-0.86
-2.83
-4.66
-6.33
-7.75
-8.82
-9.49
-9.83
-10.03
-10.27
-10.61
-10.86
-10.70
-9.80
-8.01
-5.47
-2.52
0.44
3.08
5.28
7.13
8.81
10.48
12.17
13.72
14.93
15.61
15.74
15.45
14.94
14.32
13.59
12.64
11.34
9.67
7.74
5.78
3.97
2.44
1.19
0.21
-0.52
-0.97
-1.09
-0.86
-0.31
0.48
1.39
2.30
3.10
3.66
3.85
3.61
2.94
1.97
0.89
-0.06
-0.75
-1.15
-1.43
-1.76
-2.32
-3.16
-4.20
-5.30
-6.27
-6.93
-7.13
-6.66
-5.40
-3.34
-0.71
2.07
4.49
6.18
7.03
7.28
7.27
7.30
7.37
7.23
6.53
5.10
3.09
0.92
-0.93
-2.13
-2.69
-2.90
-3.17
-3.79
-4.88
-6.33
-7.91
-9.43
-10.76
-11.82
-12.61
-13.08
-13.15
-12.74
-11.74
-10.07
-7.72
-4.82
-1.61
1.57
4.34
6.47
7.90
8.77
9.29
9.63
9.76
9.55
8.85
7.65
6.16
4.78
3.86
3.55
3.69
3.79
3.31
1.83
-0.70
-3.92
-7.20
-9.81
-11.22
-11.28
-10.18
-8.36
-6.29
-4.34
-2.72
-1.56
-0.94
-0.88
-1.29
-1.84
-2.09
-1.62
-0.32
1.48
3.16
4.05
3.77
2.48
0.67
-1.00
-2.10
-2.51
-2.44
-2.22
-2.14
-2.30
-2.68
-3.10
-3.40
-3.42
-3.07
-2.38
-1.43
-0.36
0.68
1.56
2.23
2.65
2.80
2.62
2.08
1.17
-0.01
-1.28
-2.45
-3.39
-4.09
-4.65
-5.25
-6.02
-7.00
-8.08
-9.10
-9.91
-10.56
-11.21
-12.12
-13.35
-14.71
-15.76
-15.91
-14.80
-12.40
-9.19
-5.86
-3.10
-1.33
-0.55
-0.42
-0.48
-0.34
0.23
1.26
2.68
4.29
5.87
7.19
8.02
8.21
7.71
6.61
5.11
3.49
2.06
1.05
0.57
0.53
0.66
0.69
0.42
-0.15
-0.79
-1.20
-1.15
-0.58
0.36
1.42
2.37
3.09
3.59
3.91
4.07
4.04
3.72
3.02
1.91
0.47
-1.11
-2.59
-3.78
-4.61
-5.17
-5.66
-6.25
-6.97
-7.71
-8.28
-8.58
-8.65
-8.64
-8.72
-8.90
-9.00
-8.73
-7.84
-6.29
-4.30
-2.30
-0.69
0.29
0.71
0.90
1.27
2.11
3.51
5.30
7.16
8.71
9.72
10.12
10.04
9.72
9.43
9.33
9.47
9.75
10.01
10.13
10.03
9.75
9.33
8.78
8.08
7.17
6.06
4.89
3.89
3.23
2.94
2.80
2.51
1.81
0.63
-0.88
-2.43
-3.76
-4.78
-5.48
-5.98
-6.33
-6.54
-6.64
-6.68
-6.83
-7.21
-7.86
-8.63
-9.27
-9.53
-9.38
-9.02
-8.78
-8.96
-9.58
-10.34
-10.69
-10.12
-8.42
-5.80
-2.80
-0.10
1.77
2.61
2.57
2.03
1.42
1.12
1.33
2.08
3.23
4.57
5.85
6.87
7.55
7.87
7.86
7.45
6.57
5.13
3.22
1.06
-0.99
-2.61
-3.67
-4.25
-4.55
-4.76
-4.97
-5.14
-5.22
-5.23
-5.24
-5.37
-5.69
-6.13
-6.57
-6.87
-6.96
-6.85
-6.65
-6.50
-6.55
-6.95
-7.74
-8.88
-10.17
-11.35
-12.12
-12.30
-11.80
-10.68
-9.03
-6.97
-4.63
-2.15
0.27
2.41
4.08
5.21
5.82
6.09
6.24
6.49
7.01
7.83
8.86
9.92
10.75
11.13
10.95
10.18
8.92
7.35
5.68
4.14
2.89
2.02
1.52
1.27
1.11
0.87
0.45
-0.17
-0.89
-1.65
-2.37
-3.04
-3.60
-3.99
-4.09
-3.80
-3.13
-2.26
-1.49
-1.18
-1.62
-2.94
-5.07
-7.74
-10.56
-13.08
-14.86
-15.55
-14.98
-13.23
-10.66
-7.79
-5.20
-3.29
-2.13
-1.49
-0.88
0.22
2.10
4.76
7.91
11.07
13.82
15.90
17.26
18.01
18.33
18.40
18.39
18.47
18.74
19.29
20.09
21.04
22.13
23.46
25.38
28.34
32.64
38.17
44.32
50.02
54.06
55.47
53.75
48.94
41.52
32.22
21.78
10.89
0.01
-10.67
-21.31
-32.33
-44.32
-57.66
-72.26
-87.33
-101.42
-112.80
-119.93
-121.91
-118.74
-111.26
-100.82
-88.87
-76.58
-64.66
-53.25
-42.08
-30.70
-18.68
-5.88
7.42
20.54
32.60
42.77
50.48
55.47
57.80
57.69
55.39
51.21
45.49
38.66
31.18
23.45
15.83
8.57
1.98
-3.57
-7.59
-9.59
-9.24
-6.59
-2.04
3.71
9.84
15.62
20.49
24.10
26.23
26.69
25.36
22.12
17.07
10.49
2.89
-5.08
-12.82
-19.87
-25.91
-30.69
-33.93
-35.30
-34.49
-31.41
-26.31
-19.86
-13.01
-6.75
-1.80
1.52
3.33
4.00
3.86
3.09
1.62
-0.73
-4.13
-8.55
-13.72
-19.14
-24.14
-28.09
-30.49
-31.13
-30.09
-27.69
-24.29
-20.08
-15.01
-8.82
-1.25
7.69
17.53
27.42
36.30
43.28
47.84
49.99
50.08
48.67
46.30
43.39
40.22
37.05
34.15
31.72
29.83
28.28
26.63
24.34
21.05
16.76
11.93
7.29
3.48
0.85
-0.70
-1.60
-2.39
-3.49
-5.02
-6.84
-8.65
-10.14
-11.14
-11.67
-11.93
-12.18
-12.68
-13.56
-14.73
-15.92
-16.77
-16.93
-16.23
-14.69
-12.49
-9.90
-7.18
-4.54
-2.11
-0.05
1.54
2.62
3.19
3.40
3.39
3.31
3.24
3.18
3.14
3.18
3.44
4.05
5.05
6.31
7.58
8.63
9.36
9.85
10.28
10.74
11.14
11.22
10.61
9.09
6.61
3.42
-0.04
-3.31
-6.01
-7.94
-9.12
-9.74
-10.13
-10.62
-11.47
-12.67
-14.03
-15.16
-15.70
-15.49
-14.61
-13.31
-11.94
-10.71
-9.64
-8.62
-7.51
-6.24
-4.84
-3.39
-1.99
-0.64
0.67
1.96
3.22
4.33
5.13
5.52
5.48
5.13
4.62
4.10
3.62
3.19
2.80
2.49
2.39
2.63
3.26
4.17
5.15
5.96
6.48
6.72
6.83
6.90
6.93
6.79
6.35
5.56
4.56
3.54
2.68
1.98
1.30
0.42
-0.75
-2.15
-3.57
-4.82
-5.88
-6.87
-8.00
-9.29
-10.52
-11.28
-11.12
-9.87
-7.70
-5.04
-2.44
-0.33
1.15
2.09
2.69
3.09
3.33
3.38
3.22
2.93
2.61
2.42
2.40
2.53
2.65
2.63
2.33
1.73
0.89
-0.11
-1.17
-2.22
-3.19
-4.06
-4.73
-5.10
-5.04
-4.45
-3.39
-2.04
-0.71
0.28
0.73
0.62
0.10
-0.63
-1.38
-2.12
-2.85
-3.63
-4.43
-5.20
-5.79
-6.17
-6.40
-6.66
-7.20
-8.13
-9.34
-10.45
-10.91
-10.23
-8.16
-4.84
-0.78
3.29
6.61
8.63
9.11
8.17
6.24
3.93
1.94
0.84
0.96
2.26
4.37
6.69
8.64
9.87
10.35
10.31
10.11
10.00
10.06
10.19
10.21
10.04
9.66
9.10
8.32
7.20
5.59
3.41
0.78
-2.03
-4.64
-6.71
-8.12
-8.86
-9.10
-9.03
-8.84
-8.69
-8.73
-9.09
-9.86
-10.99
-12.25
-13.28
-13.70
-13.26
-11.92
-9.93
-7.64
-5.47
-3.76
-2.66
-2.19
-2.15
-2.20
-1.96
-1.09
0.56
2.92
5.68
8.44
10.84
12.60
13.57
13.74
13.26
12.42
11.64
11.30
11.60
12.46
13.46
14.06
13.81
12.53
10.40
7.81
5.15
2.73
0.66
-1.05
-2.37
-3.26
-3.63
-3.41
-2.68
-1.67
-0.74
-0.23
-0.32
-0.97
-1.89
-2.74
-3.26
-3.44
-3.49
-3.68
-4.21
-5.00
-5.78
-6.24
-6.21
-5.81
-5.34
-5.17
-5.47
-6.15
-6.88
-7.24
-6.92
-5.79
-3.96
-1.74
0.52
2.46
3.85
4.61
4.87
4.90
5.01
5.46
6.32
7.52
8.85
10.10
11.13
11.94
12.55
13.00
13.22
13.08
12.46
11.29
9.68
7.87
6.16
4.77
3.81
3.20
2.77
2.34
1.82
1.21
0.55
-0.12
-0.77
-1.36
-1.79
-1.93
-1.73
-1.27
-0.85
-0.82
-1.43
-2.66
-4.19
-5.58
-6.51
-6.94
-7.13
-7.45
-8.15
-9.20
-10.31
-11.14
-11.40
-10.96
-9.81
-8.02
-5.66
-2.89
-0.04
2.48
4.23
5.00
4.91
4.42
4.09
4.36
5.28
6.57
7.78
8.47
8.45
7.71
6.40
4.68
2.71
0.61
-1.46
-3.28
-4.62
-5.35
-5.44
-5.05
-4.41
-3.77
-3.29
-3.03
-2.99
-3.07
-3.20
-3.27
-3.17
-2.82
-2.20
-1.41
-0.64
-0.13
-0.14
-0.75
-1.90
-3.38
-4.90
-6.20
-7.12
-7.61
-7.71
-7.53
-7.15
-6.62
-5.84
-4.68
-3.03
-0.92
1.40
3.51
5.03
5.78
5.89
5.74
5.72
6.04
6.61
7.09
7.10
6.45
5.22
3.77
2.56
1.93
1.96
2.43
2.88
2.88
2.20
0.91
-0.62
-1.97
-2.84
-3.17
-3.12
-2.90
-2.61
-2.22
-1.63
-0.83
0.02
0.63
0.73
0.23
-0.69
-1.71
-2.55
-3.16
-3.66
-4.26
-5.00
-5.73
-6.13
-5.99
-5.36
-4.55
-3.99
-3.91
-4.21
-4.49
-4.28
-3.33
-1.76
0.04
1.57
2.49
2.70
2.36
1.78
1.33
1.35
1.99
3.23
4.84
6.47
7.80
8.64
9.01
9.08
9.02
8.94
8.79
8.49
7.99
7.33
6.66
6.12
5.81
5.70
5.71
5.79
5.96
6.29
6.80
7.36
7.73
7.53
6.45
4.38
1.45
-2.01
-5.58
-8.93
-11.87
-14.28
-16.08
-17.16
-17.46
-17.02
-16.06
-14.87
-13.64
-12.32
-10.61
-8.16
-4.75
-0.54
3.98
8.18
11.54
13.84
15.11
15.56
15.37
14.72
13.75
12.71
11.87
11.43
11.41
11.60
11.64
11.26
10.32
8.89
7.18
5.32
3.38
1.27
-1.05
-3.55
-6.01
-8.12
-9.64
-10.41
-10.46
-9.99
-9.26
-8.52
-7.99
-7.76
-7.85
-8.18
-8.61
-9.01
-9.28
-9.39
-9.36
-9.16
-8.72
-7.87
-6.47
-4.48
-2.09
0.29
2.14
3.06
2.86
1.71
0.02
-1.63
-2.73
-2.95
-2.27
-0.91
0.68
2.07
2.92
3.13
2.85
2.35
1.90
1.71
1.76
1.94
2.09
1.97
1.42
0.28
-1.52
-3.90
-6.61
-9.28
-11.50
-12.95
-13.52
-13.23
-12.31
-11.03
-9.72
-8.67
-8.04
-7.79
-7.67
-7.28
-6.30
-4.61
-2.44
-0.21
1.59
2.66
2.93
2.56
1.76
0.69
-0.61
-2.17
-3.95
-5.84
-7.58
-8.95
-9.79
-10.17
-10.32
-10.52
-10.95
-11.59
-12.23
-12.54
-12.26
-11.30
-9.75
-7.85
-5.84
-3.88
-2.10
-0.52
0.85
2.02
3.02
3.93
4.84
5.83
6.91
8.04
9.08
9.86
10.18
9.90
8.98
7.51
5.75
4.07
2.82
2.20
2.15
2.46
2.80
2.95
2.83
2.50
2.09
1.67
1.28
0.95
0.77
0.84
1.18
1.64
1.89
1.59
0.62
-0.84
-2.38
-3.55
-4.08
-4.04
-3.68
-3.34
-3.24
-3.48
-4.05
-4.93
-6.04
-7.19
-8.06
-8.18
-7.17
-4.90
-1.65
1.91
5.02
7.06
7.79
7.35
6.21
4.86
3.70
2.83
2.24
1.77
1.31
0.77
0.09
-0.73
-1.68
-2.63
-3.33
-3.48
-2.84
-1.37
0.64
2.68
4.19
4.78
4.35
3.13
1.54
0.03
-1.01
-1.33
-0.79
0.64
2.92
5.91
9.36
12.96
16.33
19.09
21.00
21.95
22.03
21.51
20.65
19.70
18.77
17.76
16.45
14.53
11.74
7.95
3.30
-1.75
-6.46
-10.08
-12.07
-12.33
-11.26
-9.50
-7.68
-6.18
-5.04
-4.14
-3.39
-2.81
-2.49
-2.43
-2.49
-2.40
-1.94
-1.08
0.01
1.01
1.66
1.86
1.62
1.06
0.23
-0.91
-2.37
-4.04
-5.62
-6.71
-6.93
-6.14
-4.50
-2.44
-0.42
1.24
2.53
3.60
4.70
5.89
7.00
7.73
7.80
7.16
5.99
4.67
3.51
2.64
1.99
1.36
0.61
-0.21
-0.97
-1.58
-2.19
-3.10
-4.64
-6.82
-9.22
-11.05
-11.53
-10.28
-7.58
-4.34
-1.63
-0.28
-0.48
-1.81
-3.45
-4.61
-4.85
-4.12
-2.79
-1.33
-0.17
0.44
0.49
0.12
-0.42
-0.92
-1.19
-1.21
-0.99
-0.61
-0.12
0.43
1.00
1.49
1.78
1.77
1.40
0.72
-0.17
-1.18
-2.27
-3.45
-4.73
-6.09
-7.50
-8.91
-10.32
-11.79
-13.32
-14.84
-16.09
-16.72
-16.41
-15.04
-12.78
-10.09
-7.52
-5.56
-4.43
-4.12
-4.41
-5.01
-5.59
-5.91
-5.76
-5.03
-3.75
-2.09
-0.33
1.22
2.33
2.99
3.34
3.63
4.11
4.92
6.05
7.30
8.41
9.11
9.22
8.76
7.90
6.94
6.15
5.67
5.50
5.47
5.42
5.20
4.83
4.39
4.01
3.79
3.78
3.98
4.37
4.90
5.53
6.24
6.95
7.65
8.24
8.59
8.55
7.98
6.81
5.15
3.21
1.25
-0.49
-1.94
-3.13
-4.21
-5.34
-6.61
-8.12
-9.87
-11.76
-13.56
-14.86
-15.17
-14.11
-11.57
-7.85
-3.60
0.40
3.47
5.28
5.91
5.75
5.36
5.22
5.67
6.76
8.33
10.11
11.79
13.11
13.93
14.21
14.02
13.47
12.70
11.85
11.09
10.56
10.38
10.57
11.03
11.60
12.05
12.23
12.04
11.50
10.71
9.77
8.80
7.90
7.10
6.40
5.72
4.97
4.06
2.93
1.57
0.02
-1.66
-3.40
-5.09
-6.66
-8.06
-9.34
-10.62
-12.03
-13.64
-15.34
-16.83
-17.71
-17.62
-16.36
-14.03
-10.88
-7.33
-3.77
-0.56
2.05
3.89
4.92
5.20
4.95
4.50
4.15
4.15
4.52
5.12
5.64
5.80
5.43
4.60
3.50
2.44
1.66
1.27
1.20
1.26
1.25
1.02
0.61
0.08
-0.45
-0.88
-1.20
-1.41
-1.51
-1.49
-1.29
-0.90
-0.42
-0.09
-0.23
-1.12
-2.83
-5.22
-7.89
-10.42
-12.48
-13.98
-15.02
-15.78
-16.34
-16.59
-16.26
-15.10
-13.01
-10.17
-7.01
-4.04
-1.66
-0.07
0.84
1.31
1.65
2.10
2.76
3.65
4.72
5.89
7.09
8.19
8.99
9.23
8.72
7.42
5.52
3.42
1.58
0.34
-0.15
0.01
0.59
1.35
2.09
2.68
3.05
3.18
3.07
2.83
2.57
2.36
2.20
1.97
1.56
0.94
0.25
-0.31
-0.62
-0.73
-0.85
-1.28
-2.21
-3.61
-5.27
-6.89
-8.26
-9.24
-9.77
-9.79
-9.21
-8.00
-6.28
-4.23
-2.15
-0.28
1.30
2.64
3.90
5.28
6.94
8.86
10.89
12.71
13.98
14.41
13.94
12.74
11.19
9.67
8.41
7.44
6.54
5.49
4.18
2.72
1.35
0.44
0.18
0.60
1.48
2.46
3.19
3.46
3.26
2.74
2.10
1.42
0.72
-0.08
-1.01
-2.04
-3.15
-4.38
-5.90
-7.92
-10.53
-13.54
-16.37
-18.25
-18.49
-16.81
-13.50
-9.37
-5.46
-2.73
-1.68
-2.26
-3.92
-5.78
-6.96
-6.80
-5.13
-2.27
1.13
4.28
6.63
8.01
8.62
8.91
9.31
10.14
11.48
13.31
15.47
17.74
19.80
21.35
22.10
21.95
20.97
19.39
17.51
15.61
13.86
12.36
11.12
10.16
9.43
8.89
8.47
8.07
7.60
7.01
6.23
5.25
4.12
2.98
1.97
1.18
0.59
0.00
-0.86
-2.20
-4.02
-6.08
-8.00
-9.47
-10.46
-11.18
-12.02
-13.22
-14.73
-16.11
-16.77
-16.22
-14.37
-11.62
-8.62
-6.05
-4.25
-3.12
-2.29
-1.33
-0.01
1.66
3.46
5.16
6.58
7.65
8.33
8.54
8.26
7.52
6.51
5.52
4.79
4.40
4.18
3.87
3.26
2.39
1.46
0.79
0.51
0.56
0.71
0.72
0.50
0.16
-0.04
0.03
0.35
0.64
0.58
-0.08
-1.34
-2.97
-4.67
-6.15
-7.30
-8.16
-8.86
-9.56
-10.32
-11.09
-11.71
-11.99
-11.77
-10.98
-9.68
-8.02
-6.17
-4.26
-2.36
-0.56
1.05
2.28
3.02
3.32
3.40
3.60
4.17
5.15
6.24
7.03
7.19
6.59
5.37
3.81
2.18
0.66
-0.67
-1.75
-2.48
-2.75
-2.54
-1.96
-1.22
-0.59
-0.31
-0.45
-0.91
-1.43
-1.69
-1.41
-0.51
0.81
2.11
2.90
2.84
1.91
0.44
-1.14
-2.44
-3.32
-3.93
-4.58
-5.51
-6.86
-8.58
-10.50
-12.44
-14.12
-15.24
-15.47
-14.54
-12.34
-9.11
-5.31
-1.58
1.56
3.83
5.25
6.07
6.61
7.13
7.75
8.49
9.26
9.99
10.59
11.00
11.15
11.00
10.51
9.66
8.45
6.90
5.12
3.27
1.58
0.24
-0.59
-0.89
-0.73
-0.20
0.60
1.55
2.57
3.56
4.36
4.85
4.92
4.59
3.95
3.18
2.46
1.95
1.70
1.66
1.65
1.42
0.79
-0.37
-2.04
-4.10
-6.39
-8.72
-10.81
-12.31
-12.82
-12.04
-9.95
-6.88
-3.46
-0.41
1.71
2.65
2.49
1.48
0.01
-1.48
-2.55
-2.77
-1.89
0.00
2.44
4.71
6.13
6.32
5.39
3.82
2.22
1.08
0.60
0.70
1.13
1.57
1.78
1.64
1.18
0.58
0.10
-0.01
0.33
1.01
1.80
2.43
2.74
2.71
2.41
1.92
1.24
0.31
-0.90
-2.37
-3.88
-5.14
-5.87
-5.94
-5.45
-4.72
-4.10
-3.86
-4.13
-4.86
-5.95
-7.36
-9.01
-10.75
-12.25
-13.09
-12.84
-11.37
-8.87
-5.91
-3.18
-1.25
-0.39
-0.52
-1.26
-2.12
-2.64
-2.53
-1.75
-0.51
0.78
1.68
1.84
1.08
-0.54
-2.78
-5.30
-7.71
-9.56
-10.45
-10.14
-8.66
-6.39
-3.92
-1.85
-0.57
-0.13
-0.29
-0.62
-0.75
-0.43
0.36
1.52
2.76
3.75
4.15
3.71
2.35
0.23
-2.30
-4.81
-6.91
-8.33
-8.99
-8.95
-8.38
-7.54
-6.69
-6.12
-5.96
-6.15
-6.38
-6.19
-5.19
-3.22
-0.52
2.39
4.87
6.39
6.72
5.92
4.24
2.06
-0.25
-2.22
-3.41
-3.41
-2.00
0.75
4.49
8.66
12.68
16.14
18.82
20.71
21.91
22.52
22.62
22.26
21.51
20.47
19.27
18.02
16.71
15.16
13.11
10.33
6.88
3.13
-0.29
-2.78
-3.95
-3.90
-3.08
-2.11
-1.52
-1.59
-2.34
-3.56
-4.98
-6.30
-7.29
-7.79
-7.80
-7.46
-7.08
-7.05
-7.65
-9.00
-10.98
-13.23
-15.30
-16.71
-17.10
-16.21
-13.98
-10.54
-6.19
-1.41
3.30
7.46
10.75
13.04
14.34
14.81
14.63
14.07
13.39
12.86
12.64
12.72
12.81
12.49
11.30
9.03
5.79
2.07
-1.47
-4.24
-5.86
-6.23
-5.51
-3.99
-2.02
0.07
1.97
3.45
4.38
4.82
4.94
4.96
5.00
4.97
4.59
3.47
1.35
-1.76
-5.51
-9.28
-12.39
-14.38
-15.16
-14.98
-14.33
-13.67
-13.21
-12.80
-12.03
-10.42
-7.69
-3.98
0.16
3.86
6.26
6.83
5.49
2.73
-0.69
-3.90
-6.26
-7.45
-7.49
-6.63
-5.23
-3.62
-2.07
-0.81
-0.00
0.20
-0.29
-1.50
-3.24
-5.24
-7.13
-8.56
-9.35
-9.45
-8.99
-8.14
-7.08
-5.86
-4.49
-2.87
-0.93
1.36
3.94
6.63
9.14
11.16
12.37
12.61
11.94
10.62
9.08
7.73
6.86
6.44
6.17
5.57
4.22
1.98
-0.96
-4.13
-6.87
-8.62
-9.03
-8.02
-5.86
-3.07
-0.31
1.78
2.78
2.61
1.61
0.39
-0.38
-0.24
0.94
2.92
5.24
7.41
9.02
9.82
9.66
8.49
6.36
3.50
0.32
-2.62
-4.77
-5.78
-5.68
-4.82
-3.73
-2.85
-2.34
-2.10
-1.83
-1.24
-0.23
1.06
2.30
3.14
3.28
2.66
1.39
-0.23
-1.87
-3.28
-4.37
-5.18
-5.81
-6.32
-6.69
-6.87
-6.85
-6.72
-6.59
-6.57
-6.58
-6.38
-5.63
-4.08
-1.76
0.99
3.63
5.71
7.04
7.83
8.51
9.47
10.83
12.32
13.55
14.16
14.05
13.40
12.48
11.48
10.40
9.16
7.70
6.14
4.70
3.60
2.92
2.55
2.29
2.00
1.66
1.49
1.68
2.34
3.31
4.27
4.86
4.87
4.40
3.71
3.13
2.81
2.63
2.28
1.51
0.26
-1.22
-2.53
-3.35
-3.62
-3.65
-3.98
-5.09
-7.21
-10.12
-13.24
-15.84
-17.33
-17.40
-16.15
-13.93
-11.19
-8.37
-5.79
-3.69
-2.23
-1.45
-1.23
-1.34
-1.47
-1.41
-1.14
-0.77
-0.46
-0.26
-0.08
0.28
0.88
1.60
2.11
2.06
1.26
-0.15
-1.85
-3.42
-4.55
-5.17
-5.35
-5.23
-4.88
-4.28
-3.35
-2.06
-0.50
1.09
2.32
2.85
2.46
1.19
-0.66
-2.68
-4.47
-5.82
-6.79
-7.61
-8.54
-9.78
-11.35
-13.15
-14.95
-16.47
-17.32
-17.10
-15.48
-12.43
-8.33
-3.93
-0.15
2.32
3.20
2.76
1.57
0.31
-0.52
-0.65
-0.07
1.11
2.62
4.18
5.43
6.13
6.18
5.69
4.91
4.07
3.31
2.68
2.20
1.91
1.88
2.17
2.72
3.37
3.87
4.05
3.86
3.42
2.93
2.55
2.33
2.22
2.12
1.97
1.79
1.68
1.69
1.84
2.08
2.28
2.33
2.17
1.73
1.02
0.07
-0.98
-1.87
-2.31
-2.07
-1.07
0.54
2.49
4.51
6.44
8.18
9.68
10.81
11.45
11.59
11.44
11.33
11.55
12.23
13.13
13.87
14.09
13.69
12.86
11.95
11.18
10.50
9.59
8.08
5.82
3.01
0.20
-1.97
-3.06
-3.01
-2.13
-0.94
0.09
0.79
1.26
1.78
2.51
3.36
3.95
3.83
2.74
0.84
-1.32
-3.06
-3.96
-4.16
-4.27
-5.03
-6.91
-9.70
-12.60
-14.58
-14.85
-13.30
-10.47
-7.26
-4.51
-2.64
-1.63
-1.17
-0.93
-0.69
-0.38
-0.00
0.41
0.78
0.94
0.73
0.01
-1.16
-2.59
-4.00
-5.19
-6.08
-6.74
-7.18
-7.36
-7.12
-6.42
-5.36
-4.17
-3.14
-2.38
-1.82
-1.24
-0.47
0.49
1.47
2.18
2.35
1.84
0.65
-1.13
-3.31
-5.65
-7.88
-9.73
-11.03
-11.75
-12.03
-12.15
-12.35
-12.73
-13.16
-13.32
-12.81
-11.36
-8.93
-5.78
-2.40
0.64
2.91
4.21
4.66
4.58
4.30
4.04
3.87
3.75
3.69
3.80
4.24
5.03
5.94
6.43
5.91
4.10
1.21
-2.02
-4.66
-6.01
-5.87
-4.59
-2.91
-1.47
-0.67
-0.53
-0.76
-1.04
-1.11
-0.88
-0.35
0.45
1.47
2.65
3.85
4.83
5.29
4.96
3.74
1.80
-0.48
-2.64
-4.28
-5.16
-5.22
-4.48
-3.01
-0.90
1.68
4.40
6.87
8.69
9.66
9.86
9.59
9.24
9.10
9.22
9.47
9.61
9.43
8.89
8.02
6.90
5.61
4.22
2.80
1.53
0.59
0.07
-0.05
0.03
0.12
0.14
0.25
0.70
1.69
3.18
4.88
6.42
7.51
8.15
8.52
8.83
9.16
9.40
9.32
8.79
7.88
6.84
5.97
5.46
5.27
5.14
4.71
3.66
1.87
-0.51
-3.08
-5.27
-6.48
-6.29
-4.66
-1.92
1.23
4.02
5.85
6.50
6.21
5.52
5.03
5.16
5.98
7.28
8.69
9.82
10.39
10.23
9.27
7.52
5.05
2.09
-1.05
-3.97
-6.33
-7.91
-8.69
-8.75
-8.28
-7.42
-6.32
-5.12
-4.04
-3.23
-2.80
-2.65
-2.57
-2.27
-1.66
-0.88
-0.30
-0.34
-1.19
-2.73
-4.55
-6.18
-7.31
-7.94
-8.30
-8.70
-9.27
-9.90
-10.30
-10.15
-9.25
-7.66
-5.59
-3.38
-1.33
0.32
1.41
1.78
1.40
0.33
-1.13
-2.57
-3.54
-3.80
-3.40
-2.70
-2.19
-2.26
-3.01
-4.22
-5.55
-6.68
-7.48
-8.02
-8.37
-8.52
-8.26
-7.39
-5.89
-4.07
-2.46
-1.56
-1.57
-2.25
-3.05
-3.45
-3.20
-2.39
-1.33
-0.28
0.64
1.51
2.45
3.42
4.25
4.67
4.49
3.69
2.45
0.99
-0.45
-1.72
-2.68
-3.20
-3.14
-2.44
-1.18
0.42
2.05
3.44
4.54
5.50
6.60
8.14
10.25
12.82
15.56
18.10
20.06
21.21
21.46
20.97
20.05
19.11
18.42
18.04
17.74
17.13
15.89
13.96
11.57
9.15
7.07
5.46
4.18
2.95
1.48
-0.33
-2.41
-4.56
-6.61
-8.43
-9.96
-11.20
-12.17
-12.92
-13.55
-14.16
-14.87
-15.76
-16.90
-18.28
-19.79
-21.21
-22.19
-22.31
-21.31
-19.15
-16.11
-12.70
-9.49
-6.86
-4.88
-3.36
-2.00
-0.54
1.10
2.84
4.51
5.91
6.93
7.57
7.92
8.13
8.34
8.63
8.95
9.15
9.04
8.52
7.62
6.56
5.64
5.11
5.11
5.63
6.53
7.64
8.80
9.82
10.52
10.70
10.21
9.00
7.15
4.96
2.78
0.94
-0.40
-1.29
-2.00
-2.87
-4.19
-6.01
-8.14
-10.17
-11.63
-12.11
-11.45
-9.80
-7.58
-5.40
-3.86
-3.41
-4.17
-5.87
-7.94
-9.67
-10.45
-10.02
-8.48
-6.25
-3.90
-1.90
-0.46
0.49
1.19
1.94
2.94
4.26
5.80
7.46
9.11
10.66
11.96
12.82
13.00
12.33
10.87
8.90
6.88
5.29
4.38
4.12
4.26
4.45
4.44
4.13
3.62
3.06
2.59
2.28
2.07
1.77
1.16
0.00
-1.84
-4.29
-7.02
-9.51
-11.14
-11.49
-10.48
-8.43
-5.99
-3.82
-2.40
-1.88
-2.07
-2.58
-3.06
-3.26
-3.07
-2.50
-1.64
-0.63
0.29
0.83
0.71
-0.22
-1.89
-4.04
-6.25
-8.12
-9.37
-9.96
-10.03
-9.83
-9.62
-9.54
-9.65
-9.86
-10.01
-9.91
-9.42
-8.48
-7.21
-5.86
-4.80
-4.35
-4.63
-5.59
-6.92
-8.29
-9.37
-10.05
-10.37
-10.47
-10.48
-10.44
-10.22
-9.60
-8.35
-6.36
-3.75
-0.90
1.67
3.55
4.53
4.76
4.66
4.72
5.32
6.53
8.10
9.58
10.50
10.55
9.67
8.08
6.19
4.43
3.14
2.47
2.37
2.60
2.91
3.10
3.07
2.83
2.48
2.09
1.71
1.37
1.08
0.84
0.70
0.72
0.98
1.53
2.31
3.19
3.92
4.23
3.92
2.96
1.51
-0.11
-1.62
-2.87
-3.90
-4.84
-5.73
-6.42
-6.57
-5.88
-4.33
-2.23
-0.11
1.53
2.50
2.94
3.22
3.68
4.46
5.48
6.57
7.57
8.41
9.08
9.56
9.81
9.80
9.56
9.17
8.77
8.43
8.15
7.89
7.58
7.18
6.69
6.12
5.45
4.74
4.05
3.51
3.29
3.45
3.95
4.59
5.02
4.85
3.72
1.38
-2.26
-7.14
-13.06
-19.73
-26.72
-33.54
-39.58
-44.20
-46.82
-47.05
-44.78
-40.21
-33.77
-25.99
-17.45
-8.67
-0.19
7.45
13.69
18.10
20.50
21.06
20.22
18.54
16.55
14.65
13.13
12.21
12.08
12.81
14.32
16.34
18.52
20.60
22.52
24.49
26.85
29.86
33.57
37.77
41.99
45.63
48.08
48.82
47.53
44.23
39.28
33.30
27.00
20.95
15.44
10.54
6.12
2.02
-1.91
-5.87
-10.18
-15.18
-21.21
-28.38
-36.52
-45.15
-53.55
-60.91
-66.49
-69.69
-70.16
-67.94
-63.37
-57.10
-49.91
-42.54
-35.56
-29.40
-24.27
-20.30
-17.44
-15.45
-13.94
-12.42
-10.47
-7.87
-4.66
-1.13
2.28
5.10
6.93
7.61
7.26
6.40
5.81
6.30
8.37
11.90
16.24
20.41
23.62
25.57
26.58
27.27
28.16
29.35
30.42
30.72
29.58
26.65
21.96
15.86
8.91
1.75
-5.02
-10.83
-15.33
-18.38
-20.10
-20.86
-21.15
-21.36
-21.61
-21.67
-20.97
-18.75
-14.34
-7.41
1.87
12.78
24.30
35.37
45.15
53.21
59.49
64.12
67.21
68.74
68.54
66.42
62.36
56.58
49.55
41.82
33.92
26.26
19.11
12.68
7.14
2.64
-0.84
-3.49
-5.70
-7.88
-10.41
-13.40
-16.81
-20.47
-24.24
-28.06
-31.93
-35.88
-39.77
-43.34
-46.15
-47.82
-48.14
-47.15
-45.18
-42.65
-39.88
-36.98
-33.80
-30.10
-25.77
-20.91
-15.80
-10.75
-6.00
-1.66
2.16
5.23
7.20
7.80
7.05
5.40
3.59
2.33
1.94
2.15
2.32
1.76
0.17
-2.15
-4.49
-6.01
-6.09
-4.59
-1.79
1.68
5.11
7.77
9.12
8.85
6.92
3.65
-0.34
-4.23
-7.18
-8.49
-7.77
-5.05
-0.75
4.43
9.67
14.27
17.77
20.02
21.09
21.10
20.18
18.36
15.63
12.08
7.93
3.58
-0.47
-3.69
-5.65
-6.07
-4.92
-2.40
1.07
4.89
8.44
11.20
12.85
13.39
13.03
12.15
11.09
10.11
9.31
8.70
8.22
7.82
7.35
6.58
5.21
3.00
-0.14
-3.98
-8.05
-11.82
-14.88
-17.10
-18.55
-19.37
-19.59
-19.12
-17.87
-15.88
-13.40
-10.86
-8.67
-7.13
-6.28
-5.95
-5.84
-5.66
-5.14
-4.20
-2.93
-1.63
-0.73
-0.66
-1.65
-3.62
-6.15
-8.60
-10.29
-10.75
-9.82
-7.77
-5.15
-2.65
-0.88
-0.13
-0.37
-1.25
-2.36
-3.37
-4.16
-4.76
-5.20
-5.44
-5.32
-4.73
-3.69
-2.35
-0.93
0.46
1.89
3.56
5.68
8.33
11.46
14.90
18.43
21.74
24.42
25.96
25.81
23.57
19.31
13.58
7.37
1.80
-2.23
-4.27
-4.52
-3.60
-2.46
-2.02
-2.92
-5.46
-9.48
-14.51
-19.89
-24.93
-29.08
-31.96
-33.46
-33.66
-32.78
-31.10
-28.86
-26.22
-23.28
-20.04
-16.50
-12.68
-8.65
-4.59
-0.72
2.70
5.59
8.00
10.13
12.15
14.10
15.77
16.76
16.74
15.59
13.55
11.16
9.07
7.81
7.67
8.68
10.72
13.53
16.80
20.04
22.64
23.97
23.55
21.28
17.53
13.01
8.54
4.78
2.06
0.36
-0.57
-0.95
-0.98
-0.72
-0.24
0.37
1.02
1.61
2.11
2.54
2.93
3.31
3.70
4.15
4.75
5.58
6.68
7.94
9.15
10.08
10.59
10.66
10.39
9.90
9.22
8.30
7.06
5.44
3.48
1.36
-0.68
-2.33
-3.30
-3.32
-2.24
-0.11
2.83
6.10
9.18
11.58
12.98
13.25
12.42
10.65
8.15
5.20
2.05
-1.06
-3.98
-6.65
-9.06
-11.21
-12.96
-14.05
-14.11
-12.85
-10.22
-6.46
-2.14
2.07
5.53
7.87
8.98
9.02
8.28
7.10
5.81
4.71
4.01
3.81
3.99
4.23
4.14
3.42
2.03
0.26
-1.43
-2.63
-3.15
-3.11
-2.83
-2.63
-2.64
-2.81
-2.95
-2.92
-2.63
-2.13
-1.49
-0.80
-0.13
0.42
0.79
0.92
0.82
0.54
0.14
-0.38
-1.07
-2.08
-3.51
-5.36
-7.52
-9.70
-11.50
-12.44
-12.15
-10.44
-7.48
-3.84
-0.33
2.24
3.34
2.91
1.34
-0.74
-2.68
-4.06
-4.79
-4.96
-4.81
-4.59
-4.54
-4.84
-5.61
-6.86
-8.45
-10.18
-11.84
-13.33
-14.65
-15.79
-16.61
-16.78
-15.87
-13.59
-9.99
-5.47
-0.69
3.73
7.43
10.34
12.63
14.45
15.86
16.80
17.12
16.64
15.19
12.59
8.76
3.83
-1.79
-7.35
-11.94
-14.76
-15.40
-13.98
-11.13
-7.80
-4.94
-3.34
-3.42
-5.26
-8.60
-12.94
-17.64
-22.04
-25.56
-27.82
-28.69
-28.32
-27.07
-25.35
-23.52
-21.80
-20.24
-18.77
-17.23
-15.46
-13.31
-10.68
-7.56
-4.09
-0.54
2.73
5.38
7.26
8.48
9.47
10.74
12.75
15.64
19.28
23.29
27.27
30.90
33.95
36.31
37.84
38.37
37.78
36.04
33.29
29.83
26.08
22.46
19.27
16.67
14.58
12.71
10.68
8.16
4.98
1.24
-2.77
-6.68
-10.21
-13.29
-16.05
-18.73
-21.52
-24.42
-27.31
-29.92
-31.97
-33.22
-33.45
-32.51
-30.33
-26.95
-22.60
-17.65
-12.51
-7.53
-2.92
1.26
5.02
8.33
11.11
13.28
14.87
16.08
17.10
18.07
18.88
19.19
18.61
16.87
14.03
10.52
6.94
3.84
1.48
-0.17
-1.36
-2.31
-3.14
-3.85
-4.43
-4.99
-5.75
-6.96
-8.66
-10.60
-12.24
-13.03
-12.64
-11.10
-8.71
-5.89
-2.90
0.18
3.40
6.78
10.17
13.28
15.77
17.45
18.35
18.74
18.90
18.97
18.78
17.93
15.91
12.46
7.72
2.27
-3.06
-7.56
-10.85
-13.02
-14.47
-15.59
-16.61
-17.64
-18.74
-20.16
-22.18
-24.91
-27.99
-30.48
-31.14
-28.96
-23.66
-15.89
-7.07
1.26
7.96
12.64
15.63
17.59
19.22
20.96
22.91
24.98
26.87
28.17
28.44
27.24
24.35
19.87
14.28
8.33
2.82
-1.64
-4.79
-6.76
-7.99
-9.00
-10.24
-11.91
-14.03
-16.40
-18.82
-21.06
-22.95
-24.25
-24.68
-23.99
-22.05
-19.00
-15.22
-11.25
-7.53
-4.29
-1.53
0.83
2.95
4.90
6.81
8.83
11.15
13.86
16.78
19.49
21.38
21.91
20.89
18.49
15.25
11.83
8.81
6.50
4.84
3.54
2.13
0.29
-2.11
-4.81
-7.36
-9.28
-10.28
-10.35
-9.70
-8.58
-7.10
-5.19
-2.71
0.35
3.77
7.08
9.76
11.47
12.18
12.18
11.86
11.56
11.45
11.51
11.58
11.49
11.06
10.16
8.74
6.78
4.39
1.81
-0.68
-2.75
-4.18
-4.83
-4.66
-3.69
-2.04
0.07
2.29
4.24
5.60
6.25
6.33
6.14
6.00
6.07
6.31
6.56
6.67
6.66
6.61
6.62
6.70
6.67
6.29
5.44
4.15
2.65
1.25
0.21
-0.34
-0.36
0.12
1.05
2.31
3.72
4.97
5.68
5.54
4.47
2.67
0.57
-1.32
-2.59
-3.17
-3.27
-3.35
-3.82
-4.86
-6.32
-7.79
-8.79
-9.00
-8.33
-6.91
-5.01
-2.91
-0.86
0.96
2.42
3.45
4.08
4.46
4.77
5.11
5.46
5.59
5.24
4.27
2.85
1.46
0.65
0.81
1.89
3.37
4.52
4.69
3.64
1.60
-0.86
-3.06
-4.52
-5.01
-4.58
-3.48
-2.04
-0.59
0.58
1.27
1.39
0.95
0.01
-1.33
-2.90
-4.47
-5.80
-6.73
-7.26
-7.55
-7.83
-8.18
-8.44
-8.18
-6.98
-4.64
-1.42
2.08
5.12
7.13
7.97
7.81
7.03
5.96
4.76
3.43
1.95
0.38
-1.12
-2.31
-3.06
-3.42
-3.57
-3.78
-4.22
-4.90
-5.70
-6.40
-6.86
-7.09
-7.22
-7.41
-7.74
-8.12
-8.34
-8.16
-7.50
-6.43
-5.15
-3.84
-2.59
-1.41
-0.27
0.71
1.32
1.29
0.44
-1.20
-3.38
-5.75
-7.96
-9.73
-10.85
-11.12
-10.32
-8.36
-5.36
-1.71
1.91
4.82
6.61
7.26
7.17
6.91
6.96
7.51
8.46
9.58
10.63
11.48
12.03
12.22
11.96
11.20
10.02
8.61
7.25
6.18
5.49
5.13
4.93
4.77
4.65
4.68
5.00
5.64
6.47
7.24
7.62
7.36
6.37
4.75
2.71
0.47
-1.81
-4.07
-6.26
-8.31
-10.10
-11.52
-12.53
-13.17
-13.60
-13.92
-14.15
-14.20
-13.87
-12.98
-11.43
-9.25
-6.58
-3.64
-0.64
2.20
4.70
6.70
8.05
8.72
8.75
8.28
7.56
6.80
6.18
5.78
5.60
5.57
5.59
5.55
5.39
5.04
4.46
3.67
2.73
1.74
0.90
0.41
0.45
1.11
2.34
4.00
5.87
7.71
9.31
10.49
11.10
11.02
10.20
8.74
6.82
4.74
2.74
0.94
-0.75
-2.48
-4.36
-6.31
-8.04
-9.18
-9.47
-8.82
-7.39
-5.51
-3.54
-1.84
-0.63
-0.01
0.12
0.02
0.07
0.61
1.76
3.34
4.94
6.07
6.41
5.94
4.86
3.44
1.82
0.00
-2.09
-4.41
-6.65
-8.36
-9.06
-8.54
-6.99
-4.91
-2.94
-1.54
-0.88
-0.84
-1.18
-1.67
-2.24
-2.92
-3.73
-4.63
-5.49
-6.15
-6.56
-6.81
-7.09
-7.61
-8.53
-9.77
-11.06
-11.93
-11.89
-10.67
-8.31
-5.28
-2.27
0.04
1.30
1.54
1.19
0.75
0.62
0.82
1.05
0.89
-0.00
-1.65
-3.76
-5.88
-7.63
-8.81
-9.47
-9.76
-9.78
-9.50
-8.85
-7.81
-6.50
-5.13
-3.84
-2.52
-0.86
1.51
4.71
8.47
12.15
14.94
16.23
15.75
13.69
10.48
6.64
2.62
-1.23
-4.62
-7.34
-9.24
-10.36
-10.89
-11.07
-11.12
-11.02
-10.62
-9.69
-8.11
-6.04
-3.82
-1.89
-0.56
0.10
0.27
0.27
0.39
0.78
1.44
2.23
3.07
3.88
4.71
5.58
6.44
7.14
7.41
6.99
5.77
3.80
1.33
-1.25
-3.58
-5.37
-6.44
-6.73
-6.27
-5.19
-3.73
-2.24
-1.06
-0.43
-0.40
-0.84
-1.51
-2.16
-2.65
-2.94
-3.12
-3.29
-3.57
-4.08
-4.85
-5.80
-6.64
-6.89
-5.96
-3.41
0.83
6.41
12.53
18.27
22.83
25.74
26.96
26.79
25.66
23.98
21.93
19.50
16.56
12.99
8.88
4.56
0.56
-2.54
-4.35
-4.75
-4.04
-2.75
-1.56
-1.10
-1.78
-3.75
-6.82
-10.55
-14.39
-17.77
-20.29
-21.72
-22.03
-21.34
-19.80
-17.65
-15.16
-12.70
-10.58
-8.98
-7.89
-7.04
-6.07
-4.66
-2.69
-0.27
2.34
4.85
7.05
8.87
10.33
11.53
12.51
13.27
13.74
13.84
13.48
12.68
11.51
10.06
8.42
6.66
4.83
3.02
1.46
0.45
0.31
1.22
3.10
5.57
7.96
9.55
9.74
8.20
5.00
0.55
-4.52
-9.56
-14.02
-17.59
-20.15
-21.73
-22.43
-22.40
-21.80
-20.80
-19.59
-18.33
-17.08
-15.85
-14.56
-13.12
-11.48
-9.72
-7.97
-6.40
-5.05
-3.78
-2.30
-0.28
2.49
6.03
10.09
14.20
17.87
20.61
22.12
22.29
21.25
19.31
16.94
14.63
12.81
11.74
11.53
12.17
13.58
15.56
17.78
19.74
20.83
20.48
18.38
14.59
9.58
4.15
-0.84
-4.71
-7.14
-8.20
-8.29
-7.91
-7.49
-7.27
-7.30
-7.47
-7.64
-7.71
-7.63
-7.48
-7.46
-7.84
-8.87
-10.56
-12.61
-14.46
-15.47
-15.19
-13.55
-10.87
-7.69
-4.50
-1.65
0.74
2.70
4.37
6.00
7.85
10.09
12.64
15.17
17.13
18.11
18.03
17.21
16.24
15.60
15.42
15.49
15.40
14.85
13.84
12.62
11.56
10.93
10.81
11.11
11.66
12.34
13.06
13.79
14.45
14.85
14.70
13.59
11.19
7.38
2.34
-3.35
-8.91
-13.54
-16.63
-17.93
-17.57
-15.94
-13.62
-11.21
-9.30
-8.31
-8.47
-9.66
-11.46
-13.26
-14.43
-14.58
-13.68
-12.07
-10.24
-8.68
-7.65
-7.09
-6.77
-6.40
-5.76
-4.81
-3.65
-2.44
-1.31
-0.29
0.67
1.61
2.52
3.30
3.87
4.23
4.55
5.11
6.08
7.38
8.56
8.91
7.77
4.90
0.64
-4.12
-8.26
-10.85
-11.49
-10.35
-8.08
-5.49
-3.32
-2.03
-1.81
-2.56
-4.00
-5.76
-7.42
-8.65
-9.19
-8.91
-7.82
-6.03
-3.80
-1.42
0.78
2.51
3.63
4.09
3.99
3.46
2.69
1.82
0.93
0.13
-0.52
-0.95
-1.15
-1.14
-1.02
-0.89
-0.91
-1.21
-1.90
-3.07
-4.76
-6.88
-9.21
-11.34
-12.78
-13.09
-12.04
-9.75
-6.67
-3.44
-0.61
1.52
3.03
4.24
5.50
6.96
8.50
9.83
10.68
10.94
10.71
10.23
9.64
8.93
7.99
6.74
5.29
3.94
3.01
2.71
2.91
3.30
3.48
3.23
2.56
1.70
0.88
0.30
-0.03
-0.18
-0.26
-0.36
-0.62
-1.23
-2.40
-4.26
-6.76
-9.51
-11.94
-13.38
-13.39
-11.88
-9.23
-6.12
-3.23
-1.05
0.38
1.36
2.31
3.61
5.36
7.42
9.51
11.37
12.86
13.93
14.58
14.75
14.36
13.34
11.77
9.86
7.96
6.37
5.28
4.66
4.30
3.96
3.45
2.72
1.81
0.87
0.07
-0.52
-0.85
-1.00
-1.08
-1.26
-1.64
-2.30
-3.28
-4.58
-6.18
-8.01
-9.92
-11.67
-13.04
-13.84
-14.04
-13.75
-13.13
-12.21
-10.90
-8.99
-6.34
-3.07
0.42
3.59
5.92
7.23
7.67
7.67
7.67
7.94
8.52
9.28
10.03
10.63
11.03
11.23
11.24
11.06
10.64
9.93
8.89
7.52
5.85
4.00
2.18
0.66
-0.32
-0.59
-0.18
0.77
1.98
3.12
3.91
4.10
3.57
2.37
0.69
-1.14
-2.74
-3.81
-4.29
-4.37
-4.51
-5.14
-6.55
-8.63
-10.96
-12.86
-13.69
-13.09
-11.01
-7.79
-3.92
-0.01
3.41
5.92
7.30
7.61
7.15
6.42
5.88
5.78
6.01
6.16
5.77
4.61
2.81
0.79
-0.95
-2.09
-2.67
-2.97
-3.33
-3.98
-4.93
-6.07
-7.28
-8.48
-9.65
-10.71
-11.44
-11.56
-10.80
-9.10
-6.69
-4.11
-2.01
-0.97
-1.25
-2.65
-4.65
-6.59
-7.96
-8.62
-8.79
-8.89
-9.34
-10.30
-11.58
-12.75
-13.25
-12.63
-10.74
-7.77
-4.21
-0.71
2.16
4.10
5.12
5.53
5.73
6.07
6.64
7.36
7.99
8.33
8.24
7.70
6.75
5.50
4.05
2.53
1.10
-0.12
-1.03
-1.62
-1.86
-1.77
-1.35
-0.63
0.30
1.33
2.27
3.04
3.62
4.04
4.28
4.26
3.78
2.64
0.82
-1.49
-3.87
-5.87
-7.21
-7.88
-8.13
-8.28
-8.57
-8.98
-9.28
-9.16
-8.33
-6.75
-4.60
-2.26
-0.15
1.47
2.55
3.27
3.95
4.84
6.03
7.43
8.82
9.98
10.74
11.08
11.05
10.72
10.13
9.33
8.33
7.19
5.99
4.84
3.87
3.18
2.80
2.66
2.62
2.59
2.54
2.56
2.73
3.09
3.53
3.83
3.81
3.37
2.63
1.75
0.91
0.16
-0.58
-1.45
-2.56
-3.85
-5.20
-6.40
-7.24
-7.50
-7.00
-5.62
-3.39
-0.51
2.58
5.38
7.43
8.50
8.67
8.24
7.61
7.20
7.25
7.84
8.86
10.05
11.06
11.52
11.20
10.05
8.21
6.01
3.75
1.67
-0.13
-1.60
-2.74
-3.50
-3.88
-3.92
-3.74
-3.49
-3.30
-3.24
-3.28
-3.33
-3.33
-3.24
-3.09
-2.92
-2.81
-2.85
-3.10
-3.65
-4.54
-5.79
-7.32
-8.99
-10.61
-12.00
-13.00
-13.53
-13.50
-12.79
-11.31
-9.01
-6.07
-2.92
-0.15
1.68
2.36
2.09
1.47
1.24
1.87
3.33
5.12
6.49
6.82
5.91
3.98
1.59
-0.75
-2.74
-4.35
-5.71
-6.89
-7.83
-8.32
-8.20
-7.42
-6.15
-4.73
-3.50
-2.69
-2.32
-2.25
-2.28
-2.24
-2.09
-1.99
-2.16
-2.80
-4.03
-5.78
-7.82
-9.83
-11.55
-12.90
-13.92
-14.72
-15.35
-15.78
-15.81
-15.19
-13.73
-11.45
-8.64
-5.77
-3.36
-1.75
-1.03
-1.03
-1.38
-1.72
-1.82
-1.68
-1.41
-1.17
-1.13
-1.55
-2.67
-4.55
-7.05
-9.89
-12.72
-15.22
-17.13
-18.40
-19.21
-19.89
-20.38
-20.44
-19.89
-18.80
-17.46
-16.14
-15.06
-14.32
-13.98
-13.36
-11.72
-8.67
-4.55
-0.12
4.02
7.66
11.14
15.14
21.28
30.94
44.48
60.96
78.70
96.41
113.70
130.96
143.73
147.85
141.50
126.56
106.74
84.83
62.29
39.92
18.30
-2.16
-20.44
-35.14
-44.95
-48.87
-47.66
-42.39
-35.34
-29.60
-27.67
-29.53
-32.80
-34.79
-33.35
-29.56
-26.63
-28.10
-35.81
-48.90
-64.29
-78.57
-90.05
-98.61
-104.55
-107.43
-106.17
-100.06
-89.39
-76.55
-61.82
-45.70
-28.41
-10.05
8.95
27.53
44.10
57.12
65.73
70.31
71.83
71.67
71.16
70.84
70.39
69.00
65.71
59.90
51.75
41.79
29.70
16.46
3.27
-8.87
-19.32
-27.65
-33.61
-37.00
-38.18
-37.95
-37.12
-36.29
-35.11
-32.15
-25.40
-13.34
4.07
24.95
46.19
64.86
79.02
88.39
94.27
98.85
104.56
113.45
126.55
143.55
162.48
179.63
190.33
190.34
177.56
153.21
121.98
90.81
66.87
55.69
59.86
78.85
109.68
148.03
189.16
228.88
264.09
293.02
315.10
330.33
338.54
338.96
330.28
311.44
282.40
244.61
200.68
153.55
105.47
57.66
10.51
-35.67
-80.04
-121.28
-158.00
-189.54
-216.41
-240.27
-263.43
-287.82
-314.05
-341.28
-367.61
-391.25
-412.13
-432.49
-455.97
-485.04
-518.71
-551.68
-576.05
-584.48
-573.25
-542.89
-496.89
-439.55
-374.95
-307.41
-242.36
-186.11
-143.83
-116.42
-98.87
-81.57
-54.68
-13.36
39.18
92.53
133.37
150.89
140.57
105.41
54.52
0.14
-45.65
-73.34
-77.23
-55.77
-10.80
53.42
130.60
212.78
290.73
354.87
397.10
412.96
403.33
374.61
337.30
302.58
278.40
266.89
264.24
263.45
257.99
244.76
224.58
200.67
175.78
150.21
121.91
88.33
49.14
7.03
-33.56
-69.41
-100.02
-128.03
-158.13
-194.88
-240.23
-291.90
-343.38
-385.35
-409.35
-408.45
-379.09
-322.43
-244.94
-156.63
-67.99
12.29
78.49
124.92
149.59
154.22
143.71
124.34
102.94
85.87
76.76
74.90
70.99
55.90
24.69
-22.04
-80.74
-147.12
-217.49
-289.75
-362.40
-437.87
-511.58
-571.68
-603.46
-597.91
-555.28
-483.47
-394.52
-265.79
-101.23
72.19
222.01
332.72
405.50
448.47
470.44
478.09
476.80
464.65
445.85
420.76
391.73
360.14
326.62
292.43
258.35
226.48
195.17
165.50
139.99
122.08
111.42
103.48
92.23
70.97
37.63
-7.88
-59.82
-110.43
-152.96
-185.45
-210.19
-217.38
-203.57
-172.88
-137.36
-106.65
-85.32
-73.67
-70.31
-72.81
-77.97
-88.58
-102.39
-117.72
-131.36
-139.38
-137.92
-124.64
-99.77
-66.34
-30.98
3.54
32.75
54.94
70.82
82.47
92.49
103.56
118.02
136.13
157.11
177.54
193.28
200.39
196.71
183.16
163.34
141.78
121.29
103.04
86.40
71.33
58.73
49.72
44.56
42.00
39.77
35.80
29.77
22.73
16.73
12.96
10.84
8.47
4.18
-1.98
-7.68
-9.55
-5.55
3.53
13.72
19.37
15.80
1.85
-19.12
-40.42
-54.45
-55.55
-42.09
-17.09
13.00
40.89
61.30
72.80
77.76
80.32
83.72
88.32
91.33
88.51
76.64
54.84
24.26
-13.45
-57.39
-106.97
-160.37
-212.97
-257.56
-286.79
-296.51
-287.88
-266.60
-240.32
-215.70
-196.68
-184.59
-179.00
-178.39
-179.85
-178.67
-168.59
-143.62
-100.76
-42.09
24.95
88.94
137.46
160.43
153.23
118.55
66.65
13.32
-24.66
-35.44
-16.76
22.70
66.78
98.25
105.05
83.32
36.26
-29.46
-106.81
-189.29
-269.67
-338.70
-385.83
-402.40
-385.36
-339.18
-274.42
-203.82
-137.51
-80.18
-31.19
13.21
57.21
103.45
152.59
203.97
256.43
308.70
359.18
405.43
444.09
471.39
484.64
483.62
471.22
452.56
432.98
416.02
402.20
389.57
375.32
357.38
335.04
308.37
277.42
241.88
201.94
158.83
115.14
74.22
38.97
10.71
-11.38
-29.96
-48.55
-69.96
-95.92
-126.87
-162.24
-201.18
-243.35
-289.18
-339.10
-391.69
-441.24
-478.79
-494.79
-483.14
-444.39
-385.51
-317.01
-248.58
-185.88
-129.25
-77.08
-28.90
13.12
45.54
66.88
80.13
92.67
106.58
123.37
141.96
159.94
174.90
185.34
190.91
191.45
185.37
169.21
139.99
97.35
45.92
-4.61
-42.26
-57.52
-47.59
-18.12
19.28
52.17
71.69
75.19
65.62
48.79
30.17
13.41
-1.99
-16.60
-30.06
-40.80
-46.91
-47.47
-43.25
-36.61
-30.55
-27.37
-26.79
-27.78
-27.90
-24.74
-17.22
-6.45
4.24
10.54
9.09
-0.26
-14.29
-27.49
-35.16
-36.06
-33.06
-31.45
-35.95
-47.99
-64.93
-81.77
-93.43
-96.92
-91.93
-80.01
-63.32
-43.97
-23.94
-5.22
10.12
20.36
24.63
22.97
16.14
5.48
-7.45
-20.90
-32.91
-41.75
-46.33
-46.53
-43.20
-38.19
-32.45
-26.66
-20.89
-14.65
-7.39
1.01
10.03
18.56
25.34
29.56
31.02
30.31
28.46
26.44
24.78
23.52
22.43
21.29
20.14
19.04
18.04
16.99
15.65
13.83
11.57
9.14
6.85
4.84
3.04
1.07
-1.34
-4.28
-7.49
-10.43
-12.57
-13.70
-14.20
-14.97
-17.26
-22.18
-30.01
-39.87
-49.86
-57.67
-61.64
-61.57
-58.96
-56.63
-57.62
-63.70
-74.46
-87.49
-99.19
-106.57
-108.22
-104.53
-97.95
-91.93
-89.13
-90.11
-92.90
-92.95
-84.27
-60.93
-18.39
42.59
114.26
183.12
233.68
253.70
239.79
198.60
145.26
99.24
75.54
80.05
109.77
156.12
208.70
259.77
303.88
337.70
360.48
370.07
363.01
337.39
294.33
237.67
174.28
109.53
36.19
-43.48
-120.50
-185.83
-234.25
-263.70
-279.24
-277.57
-254.10
-207.07
-137.57
-51.63
42.71
135.08
215.61
270.10
286.83
262.62
207.73
142.25
87.94
46.49
13.04
-18.85
-55.01
-93.95
-132.41
-166.90
-194.91
-217.48
-238.82
-262.15
-288.82
-318.55
-348.95
-378.06
-404.90
-428.58
-447.64
-459.04
-456.82
-435.05
-390.95
-325.83
-245.37
-157.15
-67.87
17.86
97.14
168.39
229.76
279.37
317.47
347.46
375.56
408.18
448.63
495.16
542.24
582.81
611.34
625.70
626.74
616.45
596.16
565.89
525.09
474.17
415.03
350.84
285.08
220.81
160.04
103.66
51.53
2.59
-44.83
-92.53
-141.72
-192.39
-243.23
-292.19
-337.21
-377.07
-411.88
-442.87
-472.04
-501.82
-534.82
-573.33
-618.34
-668.20
-717.88
-759.57
-784.80
-787.53
-766.50
-725.76
-672.87
-615.87
-560.50
-509.06
-461.20
-415.56
-371.30
-328.40
-287.08
-246.95
-206.75
-164.90
-120.35
-73.16
-24.42
24.23
71.46
116.73
160.35
203.06
245.47
287.83
330.03
371.91
413.30
453.87
492.78
528.38
558.30
579.78
590.00
586.29
566.47
529.20
474.81
406.14
328.87
250.84
180.29
123.60
83.66
59.53
47.58
43.39
43.29
44.93
46.92
48.14
47.44
43.73
36.50
26.19
14.02
1.55
-9.93
-19.77
-27.95
-34.77
-40.45
-44.94
-47.92
-48.96
-47.79
-44.48
-39.60
-34.12
-29.17
-25.70
-24.20
-24.61
-26.34
-28.59
-30.60
-31.88
-32.27
-31.99
-31.43
-30.97
-30.85
-30.95
-30.91
-30.22
-28.55
-25.85
-22.30
-18.18
-13.62
-8.52
-2.69
3.85
10.73
17.26
22.61
26.23
28.05
28.53
28.38
28.20
28.26
28.32
27.90
26.53
24.00
20.54
16.69
13.04
10.00
7.70
6.03
4.79
3.90
3.36
3.20
3.31
3.39
3.01
1.85
-0.23
-3.10
-6.48
-10.09
-13.65
-16.92
-19.59
-21.27
-21.61
-20.40
-17.70
-13.83
-9.35
-4.87
-0.97
1.96
3.80
4.77
5.36
6.18
7.73
10.16
13.13
16.04
18.22
19.29
19.27
18.48
17.35
16.12
14.83
13.38
11.74
10.07
8.60
7.54
6.83
6.15
5.05
3.25
0.83
-1.74
-3.86
-5.13
-5.57
-5.60
-5.77
-6.49
-7.85
-9.62
-11.49
-13.23
-14.72
-15.83
-16.42
-16.21
-15.00
-12.77
-9.77
-6.50
-3.41
-0.82
1.18
2.65
3.65
4.23
4.40
4.26
4.00
3.87
4.08
4.66
5.43
6.14
6.57
6.67
6.57
6.41
6.30
6.19
5.95
5.42
4.59
3.54
2.43
1.43
0.63
-0.02
-0.64
-1.38
-2.34
-3.52
-4.90
-6.38
-7.92
-9.46
-10.94
-12.23
-13.19
-13.69
-13.73
-13.41
-12.90
-12.39
-11.92
-11.38
-10.58
-9.33
-7.60
-5.51
-3.27
-1.18
0.56
1.85
2.75
3.43
4.13
5.02
6.14
7.34
8.33
8.86
8.81
8.31
7.66
7.16
6.97
6.99
6.96
6.66
6.04
5.24
4.49
3.90
3.43
2.84
1.93
0.61
-0.97
-2.55
-3.86
-4.77
-5.30
-5.57
-5.77
-6.01
-6.36
-6.80
-7.26
-7.74
-8.21
-8.69
-9.13
-9.42
-9.38
-8.82
-7.66
-5.97
-4.00
-2.06
-0.41
0.83
1.73
2.44
3.08
3.68
4.16
4.39
4.27
3.86
3.31
2.82
2.58
2.66
3.01
3.53
4.05
4.46
4.68
4.66
4.42
4.01
3.54
3.15
2.94
2.93
3.04
3.10
2.96
2.52
1.80
0.88
-0.14
-1.21
-2.30
-3.41
-4.50
-5.46
-6.14
-6.40
-6.23
-5.73
-5.12
-4.57
-4.19
-3.88
-3.46
-2.71
-1.53
0.09
1.96
3.86
5.53
6.73
7.35
7.41
7.05
6.54
6.16
6.07
6.26
6.56
6.75
6.70
6.42
6.05
5.75
5.61
5.62
5.69
5.79
5.88
5.95
5.96
5.80
5.38
4.64
3.62
2.41
1.15
-0.03
-1.03
-1.76
-2.18
-2.29
-2.21
-2.10
-2.18
-2.59
-3.36
-4.34
-5.35
-6.23
-6.89
-7.35
-7.65
-7.79
-7.73
-7.40
-6.81
-6.00
-5.11
-4.27
-3.60
-3.15
-2.91
-2.79
-2.64
-2.33
-1.76
-0.97
-0.10
0.62
0.99
0.95
0.58
0.12
-0.23
-0.35
-0.25
-0.04
0.18
0.38
0.60
0.89
1.26
1.66
1.96
2.07
1.96
1.70
1.46
1.34
1.34
1.40
1.42
1.32
1.13
0.88
0.52
-0.02
-0.88
-2.10
-3.59
-5.08
-6.29
-6.97
-7.05
-6.60
-5.74
-4.59
-3.19
-1.62
0.04
1.60
2.88
3.74
4.20
4.41
4.62
5.05
5.79
6.71
7.63
8.29
8.60
8.59
8.43
8.29
8.24
8.24
8.16
7.90
7.47
6.95
6.45
6.04
5.69
5.31
4.84
4.18
3.30
2.18
0.87
-0.53
-1.85
-2.88
-3.50
-3.73
-3.77
-3.87
-4.29
-5.12
-6.29
-7.61
-8.89
-9.98
-10.77
-11.18
-11.13
-10.52
-9.31
-7.56
-5.45
-3.26
-1.32
0.12
0.94
1.19
1.08
0.89
0.85
1.09
1.59
2.28
3.03
3.78
4.49
5.19
5.88
6.54
7.08
7.44
7.57
7.47
7.16
6.72
6.22
5.74
5.34
5.06
4.88
4.74
4.53
4.19
3.71
3.16
2.60
2.11
1.69
1.28
0.82
0.23
-0.48
-1.29
-2.10
-2.86
-3.51
-4.07
-4.56
-5.01
-5.39
-5.62
-5.56
-5.12
-4.23
-2.96
-1.48
0.02
1.31
2.28
2.86
3.07
2.97
2.70
2.43
2.33
2.57
3.20
4.15
5.27
6.34
7.20
7.80
8.15
8.33
8.40
8.34
8.10
7.65
6.98
6.16
5.32
4.57
3.97
3.54
3.18
2.81
2.33
1.71
0.97
0.24
-0.41
-0.94
-1.46
-2.12
-3.01
-4.08
-5.18
-6.11
-6.73
-7.08
-7.28
-7.44
-7.53
-7.40
-6.90
-5.94
-4.62
-3.24
-2.10
-1.37
-1.04
-0.95
-0.87
-0.68
-0.38
-0.07
0.12
0.14
-0.01
-0.22
-0.40
-0.52
-0.58
-0.65
-0.79
-0.99
-1.20
-1.35
-1.37
-1.28
-1.15
-1.11
-1.26
-1.66
-2.27
-2.95
-3.58
-4.00
-4.20
-4.22
-4.14
-4.05
-4.00
-3.99
-4.02
-4.15
-4.50
-5.13
-6.04
-7.10
-8.11
-8.84
-9.18
-9.09
-8.62
-7.85
-6.86
-5.75
-4.61
-3.54
-2.61
-1.82
-1.17
-0.62
-0.17
0.15
0.37
0.54
0.81
1.26
1.91
2.65
3.31
3.71
3.84
3.79
3.73
3.79
3.94
4.04
3.92
3.51
2.88
2.22
1.75
1.54
1.54
1.56
1.43
1.05
0.46
-0.19
-0.74
-1.11
-1.29
-1.35
-1.42
-1.63
-2.08
-2.81
-3.75
-4.73
-5.51
-5.89
-5.73
-5.06
-4.06
-2.94
-1.90
-1.02
-0.33
0.21
0.63
0.91
1.01
0.95
0.80
0.72
0.83
1.19
1.77
2.43
3.03
3.46
3.70
3.73
3.60
3.32
2.91
2.45
2.06
1.91
2.07
2.52
3.12
3.67
4.00
4.01
3.73
3.26
2.75
2.34
2.10
2.04
2.09
2.13
2.06
1.81
1.36
0.78
0.14
-0.50
-1.12
-1.67
-2.08
-2.23
-1.99
-1.32
-0.30
0.88
2.03
2.97
3.63
4.01
4.16
4.13
4.01
3.82
3.61
3.39
3.15
2.98
2.92
3.06
3.41
3.90
4.40
4.76
4.86
4.68
4.27
3.71
3.07
2.39
1.68
0.97
0.24
-0.52
-1.34
-2.22
-3.10
-3.87
-4.44
-4.74
-4.85
-4.91
-5.07
-5.45
-6.03
-6.74
-7.44
-8.05
-8.53
-8.84
-8.91
-8.60
-7.80
-6.47
-4.76
-3.01
-1.61
-0.81
-0.62
-0.78
-0.97
-0.94
-0.65
-0.28
-0.01
0.07
0.03
0.07
0.32
0.77
1.24
1.52
1.47
1.13
0.66
0.27
0.05
-0.00
-0.08
-0.34
-0.90
-1.72
-2.60
-3.32
-3.69
-3.70
-3.45
-3.19
-3.16
-3.51
-4.22
-5.16
-6.13
-6.93
-7.45
-7.69
-7.71
-7.60
-7.43
-7.18
-6.75
-6.04
-4.99
-3.69
-2.29
-1.04
-0.08
0.53
0.85
0.99
1.04
1.01
0.87
0.66
0.48
0.48
0.73
1.17
1.61
1.85
1.79
1.48
1.12
0.89
0.87
0.96
1.04
0.98
0.76
0.46
0.20
0.05
0.02
0.02
-0.04
-0.22
-0.52
-0.88
-1.24
-1.57
-1.89
-2.28
-2.80
-3.48
-4.23
-4.94
-5.47
-5.74
-5.73
-5.47
-4.99
-4.25
-3.25
-2.01
-0.63
0.71
1.84
2.68
3.26
3.72
4.21
4.83
5.54
6.29
6.92
7.36
7.52
7.42
7.09
6.58
6.01
5.49
5.10
4.89
4.83
4.86
4.90
4.92
4.92
4.93
4.96
4.98
4.92
4.74
4.40
3.93
3.34
2.70
2.07
1.50
1.03
0.65
0.26
-0.26
-1.01
-1.98
-3.00
-3.82
-4.22
-4.08
-3.51
-2.74
-2.02
-1.49
-1.17
-0.97
-0.79
-0.57
-0.36
-0.17
-0.02
0.14
0.36
0.69
1.09
1.49
1.83
2.12
2.43
2.80
3.23
3.60
3.67
3.28
2.36
1.10
-0.17
-1.07
-1.33
-0.93
-0.02
1.08
2.04
2.64
2.80
2.59
2.15
1.64
1.18
0.84
0.61
0.44
0.26
0.04
-0.21
-0.48
-0.79
-1.15
-1.59
-2.07
-2.46
-2.54
-2.15
-1.24
0.04
1.42
2.56
3.25
3.45
3.28
2.93
2.59
2.37
2.29
2.29
2.32
2.28
2.13
1.86
1.50
1.08
0.63
0.19
-0.14
-0.28
-0.13
0.31
0.88
1.35
1.46
1.05
0.17
-0.96
-2.03
-2.81
-3.18
-3.22
-3.10
-3.06
-3.28
-3.84
-4.77
-5.99
-7.40
-8.88
-10.26
-11.41
-12.18
-12.44
-12.18
-11.46
-10.46
-9.34
-8.21
-7.06
-5.80
-4.41
-2.91
-1.45
-0.19
0.79
1.45
1.83
1.96
1.96
1.98
2.25
2.93
4.07
5.44
6.60
7.12
6.77
5.64
4.13
2.69
1.63
1.06
0.84
0.80
0.79
0.73
0.60
0.35
-0.06
-0.66
-1.52
-2.67
-4.13
-5.87
-7.73
-9.53
-11.07
-12.32
-13.45
-14.69
-16.21
-17.92
-19.42
-20.18
-19.82
-18.27
-15.85
-13.12
-10.59
-8.48
-6.66
-4.73
-2.37
0.47
3.40
5.67
6.53
5.61
3.12
-0.09
-2.95
-4.50
-4.34
-2.64
0.02
2.97
5.77
8.22
10.30
12.00
13.30
14.14
14.56
14.74
14.96
15.48
16.40
17.59
18.75
19.48
19.47
18.59
16.90
14.66
12.13
9.53
7.00
4.58
2.36
0.46
-0.94
-1.68
-1.70
-1.11
-0.12
1.06
2.27
3.43
4.43
5.17
5.54
5.48
5.10
4.66
4.42
4.53
4.92
5.33
5.46
5.17
4.48
3.58
2.67
1.87
1.19
0.59
0.04
-0.46
-0.86
-1.11
-1.19
-1.16
-1.09
-1.05
-1.08
-1.14
-1.19
-1.19
-1.21
-1.34
-1.70
-2.35
-3.21
-4.12
-4.87
-5.31
-5.43
-5.26
-4.91
-4.42
-3.80
-3.00
-1.98
-0.74
0.68
2.17
3.58
4.71
5.38
5.51
5.18
4.58
3.98
3.64
3.65
3.98
4.49
5.01
5.42
5.63
5.64
5.44
5.10
4.70
4.31
4.01
3.77
3.60
3.46
3.40
3.48
3.75
4.20
4.72
5.18
5.44
5.38
4.98
4.25
3.24
2.10
0.99
0.08
-0.53
-0.87
-1.08
-1.34
-1.78
-2.40
-3.10
-3.77
-4.32
-4.73
-4.97
-4.97
-4.64
-3.96
-2.98
-1.87
-0.82
0.03
0.64
1.08
1.44
1.78
2.13
2.46
2.74
2.94
3.08
3.13
3.10
2.97
2.76
2.54
2.38
2.39
2.63
3.07
3.55
3.87
3.80
3.24
2.26
1.08
-0.01
-0.81
-1.29
-1.55
-1.81
-2.20
-2.77
-3.44
-4.13
-4.85
-5.67
-6.72
-8.01
-9.39
-10.54
-11.08
-10.74
-9.49
-7.55
-5.34
-3.32
-1.83
-0.99
-0.72
-0.82
-1.08
-1.37
-1.63
-1.84
-1.98
-2.04
-1.98
-1.79
-1.51
-1.21
-1.02
-1.06
-1.39
-2.03
-2.91
-3.92
-4.93
-5.79
-6.39
-6.67
-6.67
-6.53
-6.47
-6.70
-7.37
-8.46
-9.80
-11.12
-12.18
-12.88
-13.25
-13.46
-13.66
-13.98
-14.43
-14.99
-15.69
-16.59
-17.76
-19.21
-20.85
-22.44
-23.67
-24.25
-24.03
-23.10
-21.67
-20.06
-18.45
-16.85
-15.07
-12.79
-9.81
-6.07
-1.77
2.75
7.14
11.12
14.56
17.44
19.76
21.49
22.62
23.14
23.14
22.76
22.21
21.65
21.12
20.60
19.95
19.04
17.83
16.33
14.69
13.11
11.76
10.72
9.98
9.39
8.81
8.12
7.30
6.34
5.28
4.11
2.83
1.41
-0.07
-1.52
-2.83
-3.92
-4.71
-5.16
-5.22
-4.87
-4.12
-3.08
-1.94
-0.88
-0.04
0.55
0.90
1.07
1.10
1.03
0.93
0.89
1.01
1.36
1.90
2.56
3.25
3.88
4.41
4.79
5.00
5.05
4.97
4.88
4.89
5.08
5.40
5.68
5.70
5.34
4.63
3.76
3.00
2.57
2.53
2.77
3.06
3.17
2.96
2.40
1.57
0.59
-0.42
-1.38
-2.25
-3.01
-3.66
-4.16
-4.50
-4.61
-4.40
-3.82
-2.80
-1.43
0.18
1.79
3.21
4.28
4.95
5.23
5.15
4.82
4.33
3.85
3.60
3.74
4.34
5.28
6.30
7.08
7.42
7.24
6.65
5.82
4.89
3.98
3.12
2.37
1.79
1.45
1.35
1.40
1.48
1.45
1.24
0.85
0.35
-0.21
-0.78
-1.31
-1.76
-2.07
-2.21
-2.20
-2.19
-2.35
-2.81
-3.56
-4.45
-5.25
-5.74
-5.84
-5.58
-5.10
-4.49
-3.80
-3.07
-2.31
-1.61
-1.07
-0.76
-0.70
-0.79
-0.88
-0.84
-0.60
-0.21
0.22
0.58
0.79
0.86
0.85
0.81
0.76
0.65
0.43
0.03
-0.47
-0.94
-1.26
-1.40
-1.44
-1.47
-1.60
-1.91
-2.37
-2.87
-3.26
-3.51
-3.67
-3.87
-4.21
-4.71
-5.31
-5.87
-6.22
-6.27
-6.19
-6.23
-6.62
-7.37
-8.33
-9.24
-9.93
-10.00
-9.20
-7.67
-5.79
-3.97
-2.44
-1.25
-0.44
-0.04
0.62
2.07
4.36
6.91
9.08
10.52
11.15
11.00
10.14
9.78
10.98
13.95
17.92
21.86
25.16
27.64
29.51
31.38
35.86
45.55
61.68
83.21
107.49
131.18
150.72
163.02
156.32
124.05
68.56
0.84
-66.03
-121.75
-158.94
-172.37
-159.57
-122.66
-67.50
-4.40
53.91
95.59
113.10
104.82
74.20
28.46
-22.99
-68.88
-99.52
-109.76
-100.31
-77.40
-48.11
-19.46
3.25
17.19
23.22
24.43
24.40
25.77
29.33
34.14
37.93
38.69
36.09
32.28
30.32
32.02
36.52
40.62
40.93
35.76
26.26
15.60
7.22
3.49
4.21
6.90
8.50
7.11
2.69
-3.32
-9.02
-13.02
-14.91
-15.18
-14.56
-13.54
-12.34
-11.28
-11.20
-13.57
-20.18
-32.43
-50.70
-73.73
-98.70
-121.97
-140.27
-151.73
-156.29
-155.32
-150.78
-144.50
-137.63
-130.56
-123.19
-115.15
-106.00
-95.23
-82.33
-66.92
-49.03
-29.33
-9.05
10.15
26.66
39.38
48.05
53.31
56.40
58.66
60.99
63.60
66.04
67.55
67.58
66.02
63.22
59.76
56.16
52.68
49.38
46.21
43.18
40.30
37.56
34.89
32.20
29.44
26.67
24.06
21.76
19.79
17.99
16.16
14.16
12.03
9.96
8.21
6.98
6.33
6.20
6.33
6.43
6.20
5.40
3.93
1.88
-0.47
-2.70
-4.35
-5.08
-4.74
-3.44
-1.48
0.78
2.99
4.90
6.34
7.18
7.32
6.73
5.49
3.88
2.30
1.18
0.69
0.68
0.74
0.38
-0.70
-2.44
-4.52
-6.46
-7.89
-8.62
-8.64
-8.10
-7.13
-5.90
-4.54
-3.17
-1.86
-0.59
0.71
2.10
3.55
4.87
5.78
6.03
5.57
4.60
3.53
2.86
2.89
3.63
4.77
5.80
6.29
6.10
5.55
5.26
6.00
8.17
11.64
15.64
19.12
21.20
21.62
20.89
20.10
20.43
22.61
26.66
31.91
37.32
41.87
44.93
46.40
46.89
47.72
50.78
58.09
71.02
89.25
110.03
128.12
136.85
130.06
104.31
60.34
3.14
-59.66
-120.15
-172.27
-212.69
-240.26
-254.60
-255.16
-241.27
-213.25
-173.71
-127.95
-82.82
-44.57
-16.76
0.59
10.26
15.89
20.11
23.68
25.82
25.50
22.49
17.81
13.22
10.34
9.85
11.23
13.17
14.28
13.75
11.63
8.65
5.80
3.81
2.88
2.75
2.86
2.72
2.14
1.21
0.20
-0.59
-1.02
-1.07
-0.87
-0.61
-0.47
-0.60
-1.01
-1.64
-2.32
-2.91
-3.37
-3.83
-4.49
-5.49
-6.76
-7.99
-8.76
-8.70
-7.69
-5.89
-3.72
-1.57
0.29
1.83
3.13
4.26
5.16
5.70
5.89
5.96
6.33
7.48
9.63
12.65
16.03
19.15
21.49
22.81
23.10
22.48
21.14
19.24
16.97
14.61
12.42
10.55
8.96
7.48
5.95
4.44
3.17
2.48
2.51
3.17
4.09
4.85
5.16
5.00
4.56
4.02
3.51
3.03
2.60
2.30
2.32
2.78
3.65
4.69
5.57
6.08
6.19
6.08
5.99
6.06
6.26
6.46
6.54
6.45
6.18
5.72
5.00
3.94
2.53
0.84
-1.00
-2.89
-4.77
-6.63
-8.42
-10.01
-11.24
-12.03
-12.42
-12.57
-12.68
-12.87
-13.11
-13.27
-13.18
-12.66
-11.63
-10.03
-7.92
-5.51
-3.21
-1.49
-0.70
-0.86
-1.56
-2.17
-2.06
-0.98
0.91
3.06
4.86
5.86
5.97
5.38
4.43
3.45
2.66
2.11
1.78
1.63
1.67
1.92
2.42
3.11
3.87
4.47
4.70
4.49
3.96
3.40
3.09
3.18
3.58
4.01
4.17
3.90
3.20
2.17
0.95
-0.38
-1.79
-3.19
-4.47
-5.50
-6.22
-6.66
-6.97
-7.22
-7.36
-7.17
-6.36
-4.78
-2.55
-0.03
2.30
4.05
5.14
5.82
6.57
7.85
9.85
12.41
15.07
17.28
18.66
19.16
19.06
18.87
19.09
20.14
22.39
26.17
31.74
38.96
47.18
55.21
61.97
67.38
72.99
81.50
95.32
114.48
135.33
150.91
153.02
134.92
93.54
30.32
-49.29
-136.91
-222.45
-295.31
-345.77
-366.65
-354.99
-313.06
-248.22
-171.34
-94.26
-27.20
23.22
54.76
69.17
71.03
65.87
58.52
51.95
47.10
43.55
40.46
37.44
34.52
31.87
29.40
26.67
23.17
18.76
13.77
8.89
4.86
2.06
0.39
-0.59
-1.42
-2.41
-3.50
-4.37
-4.54
-3.78
-2.16
-0.10
1.88
3.34
4.17
4.52
4.70
5.02
5.57
6.28
6.97
7.46
7.63
7.40
6.77
5.82
4.73
3.74
3.08
2.81
2.86
3.00
3.02
2.82
2.47
2.18
2.18
2.56
3.29
4.20
5.10
5.79
6.21
6.39
6.45
6.57
6.88
7.42
8.05
8.47
8.32
7.28
5.26
2.46
-0.63
-3.38
-5.19
-5.78
-5.19
-3.88
-2.44
-1.40
-0.93
-0.74
-0.22
1.30
4.13
7.96
11.97
15.11
16.66
16.66
15.94
15.82
17.50
21.43
27.11
33.28
38.54
41.89
43.01
42.25
40.52
39.30
40.65
47.02
60.45
81.16
106.25
129.34
141.84
135.71
106.59
55.79
-10.05
-81.33
-148.62
-204.93
-246.06
-269.61
-273.84
-257.62
-221.70
-170.16
-110.75
-53.34
-6.90
23.47
37.81
40.39
37.19
33.16
30.59
29.33
27.99
25.53
22.03
18.61
16.62
16.81
18.83
21.47
23.27
23.31
21.54
18.80
16.26
14.88
14.94
16.13
17.72
19.04
19.73
19.77
19.44
19.06
18.86
18.91
19.08
19.18
19.04
18.59
17.95
17.36
17.03
17.06
17.35
17.65
17.68
17.34
16.70
15.98
15.45
15.28
15.47
15.94
16.53
17.10
17.55
17.83
17.99
18.12
18.33
18.63
18.96
19.15
19.09
18.77
18.38
18.23
18.60
19.63
21.20
22.97
24.51
25.40
25.21
23.51
19.83
13.76
5.04
-6.23
-19.50
-33.78
-47.83
-60.34
-70.29
-77.00
-80.31
-80.46
-77.95
-73.40
-67.42
-60.52
-53.16
-45.81
-38.93
-32.91
-28.00
-24.19
-21.17
-18.53
-15.89
-13.12
-10.35
-7.95
-6.25
-5.39
-5.23
-5.42
-5.58
-5.44
-4.96
-4.26
-3.52
-2.92
-2.55
-2.45
-2.59
-2.94
-3.48
-4.21
-5.11
-6.10
-6.97
-7.47
-7.34
-6.39
-4.65
-2.38
-0.00
2.05
3.48
4.20
4.33
4.05
3.52
2.82
2.00
1.09
0.23
-0.47
-0.89
-1.08
-1.18
-1.41
-1.91
-2.74
-3.80
-4.95
-6.00
-6.79
-7.16
-7.01
-6.28
-5.03
-3.36
-1.39
0.81
3.21
5.72
8.15
10.16
11.40
11.65
11.02
9.92
8.90
8.37
8.39
8.61
8.43
7.29
4.97
1.73
-1.63
-4.12
-4.82
-3.30
0.22
4.98
10.01
14.49
18.16
21.31
24.52
28.28
32.65
37.25
41.48
44.91
47.49
49.47
51.34
53.74
57.59
64.18
74.89
90.39
109.50
128.44
141.12
140.85
122.83
86.35
35.37
-22.78
-79.92
-129.47
-167.41
-191.87
-201.91
-196.83
-176.58
-143.01
-100.61
-56.14
-16.81
12.22
29.34
36.53
37.79
36.95
36.14
35.48
33.85
30.18
24.33
17.25
10.48
5.34
2.40
1.28
1.09
0.89
0.24
-0.72
-1.44
-1.30
0.01
2.35
5.22
8.01
10.26
11.82
12.83
13.64
14.61
15.98
17.74
19.69
21.45
22.67
23.16
22.96
22.34
21.67
21.27
21.28
21.62
22.06
22.30
22.17
21.69
21.10
20.71
20.85
21.65
23.08
24.86
26.60
27.92
28.55
28.46
27.82
26.88
25.95
25.19
24.50
23.38
20.78
15.33
5.64
-9.00
-28.16
-50.03
-71.84
-90.54
-103.71
-110.17
-110.14
-104.93
-96.30
-85.99
-75.32
-65.12
-55.78
-47.47
-40.21
-33.96
-28.63
-24.05
-19.96
-16.05
-12.06
-7.94
-3.85
-0.14
2.90
5.16
6.82
8.26
9.86
11.79
13.96
16.02
17.58
18.39
18.44
17.99
17.43
17.09
17.02
17.02
16.67
15.64
13.80
11.38
8.80
6.47
4.61
3.14
1.82
0.40
-1.18
-2.82
-4.33
-5.58
-6.52
-7.14
-7.40
-7.21
-6.47
-5.18
-3.46
-1.47
0.62
2.78
5.02
7.33
9.56
11.44
12.74
13.32
13.29
12.90
12.45
12.15
12.09
12.23
12.48
12.74
12.92
12.94
12.64
11.94
10.78
9.30
7.74
6.40
5.46
4.91
4.57
4.14
3.38
2.22
0.75
-0.78
-2.16
-3.27
-4.14
-4.87
-5.60
-6.42
-7.37
-8.46
-9.72
-11.17
-12.89
-14.85
-16.93
-18.92
-20.53
-21.55
-21.82
-21.37
-20.33
-18.86
-17.14
-15.24
-13.20
-11.06
-8.90
-6.89
-5.21
-4.02
-3.36
-3.16
-3.16
-3.01
-2.30
-0.70
1.99
5.74
10.34
15.41
20.52
25.28
29.35
32.55
34.82
36.26
37.00
37.22
37.07
36.63
35.98
35.19
34.33
33.44
32.47
31.25
29.59
27.34
24.52
21.39
18.31
15.68
13.70
12.37
11.49
10.74
9.80
8.40
6.44
3.96
1.21
-1.42
-3.47
-4.55
-4.42
-3.14
-0.98
1.64
4.33
6.85
9.13
11.15
12.86
14.02
14.17
12.76
9.37
3.88
-3.42
-11.84
-20.45
-28.21
-34.31
-38.19
-39.70
-39.05
-36.70
-33.27
-29.38
-25.50
-21.90
-18.68
-15.82
-13.31
-11.14
-9.36
-8.00
-7.04
-6.41
-5.99
-5.74
-5.63
-5.69
-5.95
-6.36
-6.83
-7.22
-7.45
-7.50
-7.44
-7.40
-7.54
-8.00
-8.83
-10.00
-11.36
-12.68
-13.63
-13.91
-13.32
-11.85
-9.71
-7.25
-4.81
-2.61
-0.65
1.15
2.90
4.62
6.25
7.69
8.88
9.85
10.63
11.23
11.60
11.64
11.34
10.78
10.14
9.63
9.39
9.50
9.87
10.37
10.79
10.88
10.48
9.58
8.32
7.02
5.98
5.39
5.20
5.16
5.00
4.51
3.65
2.53
1.31
0.06
-1.20
-2.50
-3.89
-5.33
-6.72
-7.98
-9.05
-9.96
-10.79
-11.63
-12.51
-13.32
-13.88
-13.94
-13.30
-11.92
-9.86
-7.36
-4.67
-1.99
0.53
2.79
4.74
6.35
7.60
8.50
9.10
9.45
9.61
9.62
9.51
9.33
9.08
8.84
8.62
8.50
8.47
8.51
8.56
8.51
8.31
7.94
7.43
6.82
6.19
5.55
4.98
4.50
4.15
3.93
3.73
3.40
2.78
1.79
0.43
-1.22
-3.03
-4.88
-6.65
-8.24
-9.58
-10.66
-11.50
-12.15
-12.69
-13.19
-13.62
-13.92
-13.98
-13.65
-12.77
-11.23
-9.04
-6.36
-3.50
-0.81
1.45
3.15
4.36
5.14
5.55
5.58
5.26
4.77
4.40
4.49
5.19
6.35
7.57
8.38
8.49
7.94
7.08
6.33
5.98
6.07
6.36
6.55
6.44
5.98
5.30
4.58
3.94
3.38
2.85
2.26
1.54
0.68
-0.30
-1.34
-2.40
-3.42
-4.38
-5.29
-6.15
-7.01
-7.91
-8.89
-10.02
-11.39
-13.01
-14.80
-16.56
-17.92
-18.49
-17.97
-16.29
-13.67
-10.54
-7.40
-4.65
-2.51
-0.96
0.14
0.99
1.76
2.54
3.40
4.34
5.30
6.22
6.98
7.45
7.59
7.46
7.17
6.88
6.68
6.60
6.57
6.52
6.36
6.09
5.70
5.20
4.58
3.82
2.96
2.09
1.35
0.77
0.28
-0.28
-1.06
-2.11
-3.33
-4.50
-5.42
-6.02
-6.43
-6.90
-7.65
-8.77
-10.18
-11.64
-12.89
-13.72
-13.99
-13.62
-12.60
-10.98
-8.90
-6.54
-4.16
-1.98
-0.12
1.42
2.75
4.01
5.30
6.64
8.00
9.28
10.39
11.27
11.87
12.14
12.09
11.75
11.20
10.53
9.81
9.14
8.59
8.30
8.30
8.54
8.82
8.85
8.39
7.35
5.87
4.23
2.78
1.71
1.04
0.63
0.28
-0.20
-0.87
-1.71
-2.61
-3.46
-4.19
-4.83
-5.52
-6.36
-7.44
-8.68
-9.86
-10.70
-10.96
-10.50
-9.40
-7.86
-6.17
-4.60
-3.32
-2.32
-1.52
-0.76
0.14
1.30
2.69
4.18
5.54
6.50
6.89
6.71
6.11
5.41
4.92
4.86
5.27
6.02
6.88
7.65
8.11
8.17
7.81
7.09
6.16
5.21
4.37
3.69
3.07
2.41
1.66
0.83
0.01
-0.74
-1.41
-2.05
-2.67
-3.27
-3.77
-4.11
-4.39
-4.79
-5.53
-6.73
-8.34
-10.11
-11.73
-12.93
-13.60
-13.76
-13.53
-13.01
-12.29
-11.38
-10.28
-9.05
-7.81
-6.72
-5.93
-5.54
-5.54
-5.83
-6.30
-6.84
-7.42
-8.11
-9.03
-10.28
-11.88
-13.72
-15.60
-17.27
-18.65
-19.86
-21.22
-23.10
-25.70
-28.91
-32.26
-35.09
-36.76
-36.85
-35.31
-32.36
-28.39
-23.82
-19.01
-14.15
-8.99
-2.76
5.85
18.23
35.25
56.51
79.97
102.21
119.12
127.04
123.74
109.09
85.08
55.31
24.16
-4.24
-26.75
-41.57
-48.23
-47.31
-40.11
-28.42
-14.42
-0.44
11.33
19.40
23.34
23.83
22.25
20.09
18.30
17.14
16.26
15.20
13.65
11.65
9.47
7.41
5.63
4.15
2.85
1.64
0.45
-0.75
-1.96
-3.21
-4.51
-5.90
-7.31
-8.66
-9.83
-10.70
-11.21
-11.37
-11.26
-10.99
-10.70
-10.50
-10.49
-10.71
-11.15
-11.75
-12.41
-12.98
-13.37
-13.46
-13.13
-12.34
-11.09
-9.50
-7.69
-5.81
-3.95
-2.13
-0.33
1.44
3.09
4.47
5.40
5.82
5.76
5.40
4.98
4.63
4.40
4.27
4.12
3.96
3.79
3.68
3.65
3.70
3.75
3.72
3.57
3.33
3.07
2.87
2.83
2.97
3.28
3.61
3.82
3.74
3.23
2.30
1.03
-0.44
-2.01
-3.70
-5.61
-7.84
-10.34
-12.86
-15.02
-16.46
-17.06
-16.95
-16.46
-15.91
-15.40
-14.83
-13.95
-12.56
-10.60
-8.26
-5.83
-3.58
-1.63
0.03
1.49
2.79
3.92
4.78
5.26
5.28
4.81
4.00
3.02
2.10
1.37
0.91
0.62
0.37
0.04
-0.44
-1.00
-1.52
-1.86
-1.97
-1.86
-1.58
-1.15
-0.55
0.27
1.30
2.43
3.49
4.30
4.76
4.83
4.61
4.17
3.59
2.96
2.43
2.17
2.35
3.08
4.30
5.82
7.31
8.41
8.96
9.05
9.00
9.13
9.64
10.48
11.40
11.97
11.91
11.30
10.50
9.95
9.89
10.36
11.25
12.52
13.94
15.31
16.60
17.85
19.03
20.02
20.81
21.60
22.80
23.99
24.40
23.38
20.84
17.26
13.45
10.42
9.10
10.10
12.08
13.08
11.61
7.41
1.22
-5.96
-13.19
-19.72
-25.00
-30.41
-37.76
-48.30
-62.36
-80.04
-101.76
-127.93
-158.18
-180.98
-185.96
-169.40
-137.02
-98.78
-63.09
-34.83
-15.57
-4.02
3.17
8.19
12.31
16.01
19.38
22.11
23.66
23.78
22.57
21.82
22.11
23.97
28.93
39.56
58.04
83.98
112.21
133.85
140.95
129.29
101.14
64.38
28.72
1.10
-16.67
-26.43
-30.43
-28.31
-18.22
0.77
26.22
52.13
71.47
79.79
78.24
71.08
64.08
60.62
60.20
59.39
54.81
45.54
33.80
23.46
17.09
15.13
15.59
15.58
12.92
7.45
0.65
-5.51
-9.87
-13.30
-17.39
-23.71
-32.91
-44.54
-57.33
-70.23
-83.17
-93.51
-100.96
-105.89
-109.00
-111.04
-112.74
-114.68
-117.23
-120.36
-123.55
-126.44
-128.29
-128.31
-125.95
-121.05
-113.85
-104.77
-94.30
-82.77
-70.76
-58.43
-45.52
-31.45
-15.51
2.81
23.43
45.50
67.54
87.61
104.30
117.12
126.61
133.82
139.68
144.45
147.56
148.09
145.19
138.84
129.88
119.67
109.53
100.31
92.23
85.09
78.62
72.68
67.36
62.85
59.21
56.19
53.31
49.97
45.78
40.73
35.15
29.58
24.49
20.01
15.87
11.59
6.73
1.15
-4.85
-10.67
-15.69
-19.56
-22.32
-24.32
-26.02
-27.71
-29.44
-31.02
-32.17
-32.73
-32.74
-32.37
-31.91
-31.61
-31.57
-31.80
-32.17
-32.51
-32.73
-32.81
-32.81
-32.81
-32.87
-32.90
-32.76
-32.31
-31.46
-30.30
-29.04
-27.93
-27.16
-26.75
-26.57
-26.40
-26.07
-25.53
-24.85
-24.17
-23.62
-23.22
-22.90
-22.52
-21.97
-21.24
-20.36
-19.47
-18.67
-18.04
-17.59
-17.31
-17.09
-16.88
-16.60
-16.25
-15.88
-15.56
-15.40
-15.46
-15.72
-16.13
-16.55
-16.85
-16.86
-16.54
-15.91
-15.07
-14.20
-13.41
-12.75
-12.19
-11.61
-10.94
-10.18
-9.36
-8.63
-8.07
-7.72
-7.58
-7.55
-7.51
-7.34
-6.92
-6.20
-5.17
-3.87
-2.41
-0.92
0.45
1.57
2.36
2.83
3.09
3.25
3.38
3.47
3.45
3.30
3.05
2.81
2.66
2.61
2.49
2.04
1.02
-0.65
-2.85
-5.31
-7.65
-9.56
-11.12
-12.44
-13.60
-14.64
-15.52
-16.10
-16.25
-15.70
-14.27
-12.01
-9.02
-5.39
-1.27
3.13
7.66
12.22
16.99
22.16
27.46
32.54
37.11
40.69
42.71
42.73
40.67
37.54
34.71
32.46
31.07
30.88
31.55
32.37
32.64
32.05
31.92
33.50
35.27
35.61
33.80
28.96
20.71
9.67
-2.37
-10.94
-11.55
-4.45
9.58
30.11
54.78
79.75
100.46
112.80
116.79
114.86
107.28
97.67
92.76
97.17
111.63
132.73
139.59
116.26
82.20
47.70
9.13
-32.31
-75.14
-117.92
-158.97
-196.43
-226.16
-245.10
-256.27
-261.96
-261.43
-253.48
-236.83
-211.07
-177.48
-137.33
-93.12
-51.00
-14.85
15.42
41.04
63.62
84.47
104.46
125.17
147.47
169.10
187.62
201.41
208.63
207.80
198.34
180.94
158.11
133.15
108.34
85.77
67.09
52.47
40.61
29.14
15.58
-1.49
-21.80
-43.58
-63.78
-79.11
-87.67
-89.65
-87.11
-82.99
-79.80
-78.70
-79.24
-79.93
-79.19
-76.10
-70.73
-63.85
-56.43
-49.10
-42.13
-35.50
-29.35
-24.02
-19.97
-17.47
-16.35
-15.97
-15.47
-14.21
-11.95
-8.97
-5.82
-3.07
-1.03
0.34
1.39
2.57
4.23
6.45
8.97
11.19
12.38
11.88
9.43
5.29
0.30
-4.39
-7.63
-8.72
-7.69
-5.24
-2.37
0.15
2.22
4.42
7.77
13.09
20.64
29.93
40.05
50.04
59.19
67.06
73.35
77.74
79.88
79.56
76.92
72.43
66.81
60.76
54.76
49.02
43.49
38.03
32.44
26.67
20.81
15.11
9.95
5.64
2.31
-0.17
-2.09
-3.77
-5.37
-6.88
-8.11
-8.96
-9.38
-9.45
-9.26
-8.84
-8.11
-7.01
-5.55
-3.84
-2.07
-0.43
1.01
2.28
3.54
5.00
6.78
9.04
11.86
15.23
18.92
22.64
26.25
29.90
34.03
39.03
45.08
51.83
58.41
63.79
67.27
69.05
70.25
72.52
77.10
84.48
94.07
104.36
113.47
120.14
124.26
127.01
130.20
135.03
142.25
151.90
162.98
173.28
179.88
179.66
169.78
148.25
113.31
65.52
7.61
-57.12
-126.43
-199.36
-275.52
-353.67
-430.29
-500.66
-556.71
-589.59
-593.89
-571.15
-528.95
-478.15
-428.83
-386.72
-353.98
-326.41
-296.56
-258.82
-213.12
-163.05
-113.25
-66.67
-9.38
59.50
130.86
194.10
244.33
280.14
301.88
309.64
303.79
285.89
256.90
221.23
185.47
155.66
130.57
107.43
83.13
55.79
25.57
-7.44
-40.89
-71.48
-89.44
-93.07
-84.34
-67.37
-46.61
-25.61
-7.76
5.78
15.78
23.52
28.57
31.11
31.79
31.59
32.66
36.21
42.93
52.62
64.01
73.90
79.47
78.58
69.92
53.67
31.43
6.35
-17.51
-36.61
-49.63
-57.01
-59.22
-57.88
-54.88
-51.89
-49.80
-48.84
-48.70
-49.12
-49.54
-49.35
-48.19
-45.68
-41.34
-34.64
-25.20
-13.19
0.42
14.18
26.76
37.45
46.69
55.81
66.35
79.27
94.63
111.75
129.57
146.70
161.34
171.29
174.37
169.19
155.70
135.37
110.51
83.23
54.70
25.08
-5.62
-36.59
-65.88
-90.73
-108.67
-118.43
-120.33
-116.05
-107.80
-97.58
-86.67
-75.65
-64.65
-53.88
-43.85
-35.39
-29.28
-25.82
-24.51
-24.17
-23.43
-21.38
-17.93
-13.77
-9.91
-7.13
-5.66
-5.17
-5.12
-5.07
-4.86
-4.57
-4.27
-3.90
-3.33
-2.40
-1.12
0.31
1.60
2.48
2.86
2.75
2.30
1.67
0.98
0.32
-0.27
-0.67
-0.75
-0.27
0.96
3.04
5.86
9.10
12.42
15.64
18.79
22.07
25.56
29.02
31.91
33.56
33.58
32.00
29.27
26.01
22.74
19.73
17.09
14.78
12.79
11.05
9.43
7.80
6.10
4.44
3.09
2.32
2.24
2.75
3.54
4.31
4.88
5.16
5.18
4.86
4.16
3.06
1.71
0.43
-0.36
-0.41
0.33
1.60
2.97
4.03
4.54
4.54
4.25
4.00
4.04
4.43
5.08
5.76
6.27
6.50
6.47
6.30
6.13
5.97
5.77
5.48
5.08
4.64
4.27
4.02
3.79
3.38
2.57
1.28
-0.40
-2.24
-4.02
-5.62
-7.07
-8.44
-9.68
-10.53
-10.65
-9.77
-7.96
-5.57
-3.18
-1.30
-0.17
0.26
0.27
0.12
-0.02
-0.13
-0.17
-0.10
0.16
0.68
1.46
2.37
3.22
3.86
4.14
4.03
3.59
2.96
2.38
2.10
2.27
2.88
3.71
4.47
4.91
4.98
4.76
4.41
4.01
3.54
2.86
1.90
0.69
-0.61
-1.78
-2.63
-3.18
-3.58
-4.07
-4.84
-5.95
-7.28
-8.54
-9.43
-9.69
-9.18
-7.95
-6.14
-4.00
-1.80
0.17
1.68
2.65
3.11
3.19
3.07
2.87
2.65
2.44
2.28
2.30
2.57
3.14
3.90
4.69
5.31
5.66
5.79
5.78
5.74
5.66
5.51
5.25
4.90
4.55
4.33
4.30
4.46
4.78
5.12
5.35
5.31
4.87
4.02
2.87
1.69
0.70
-0.01
-0.54
-1.15
-2.03
-3.23
-4.61
-5.98
-7.18
-8.17
-8.98
-9.51
-9.58
-8.93
-7.44
-5.29
-2.88
-0.72
0.86
1.76
2.20
2.46
2.79
3.23
3.75
4.22
4.58
4.81
4.97
5.08
5.14
5.14
5.04
4.85
4.62
4.41
4.23
4.15
4.16
4.25
4.40
4.54
4.58
4.38
3.86
2.98
1.82
0.53
-0.68
-1.63
-2.18
-2.34
-2.19
-1.92
-1.75
-1.85
-2.30
-3.04
-3.95
-4.95
-6.01
-7.17
-8.43
-9.70
-10.77
-11.43
-11.54
-11.11
-10.28
-9.24
-8.08
-6.88
-5.63
-4.35
-3.09
-1.92
-0.84
0.11
0.95
1.61
2.06
2.26
2.27
2.22
2.23
2.40
2.71
3.09
3.44
3.74
4.04
4.37
4.74
5.11
5.36
5.43
5.27
4.86
4.25
3.50
2.70
1.97
1.44
1.16
1.09
1.08
0.93
0.50
-0.26
-1.31
-2.54
-3.85
-5.16
-6.38
-7.41
-8.14
-8.52
-8.54
-8.30
-7.87
-7.29
-6.51
-5.46
-4.12
-2.61
-1.15
0.05
0.89
1.50
2.08
2.87
3.89
5.00
5.90
6.36
6.31
5.85
5.20
4.55
4.06
3.80
3.82
4.08
4.52
4.99
5.34
5.45
5.29
4.92
4.38
3.68
2.80
1.76
0.62
-0.45
-1.26
-1.74
-1.96
-2.08
-2.30
-2.73
-3.36
-4.17
-5.12
-6.24
-7.50
-8.84
-10.04
-10.84
-11.03
-10.54
-9.53
-8.29
-7.06
-5.95
-4.95
-3.92
-2.78
-1.57
-0.40
0.61
1.41
2.09
2.72
3.34
3.90
4.31
4.53
4.59
4.61
4.64
4.70
4.75
4.78
4.79
4.87
5.00
5.14
5.15
4.91
4.40
3.70
2.96
2.29
1.73
1.20
0.66
0.11
-0.34
-0.60
-0.66
-0.63
-0.69
-1.02
-1.71
-2.70
-3.88
-5.12
-6.35
-7.49
-8.46
-9.15
-9.45
-9.29
-8.69
-7.79
-6.73
-5.64
-4.62
-3.70
-2.85
-2.04
-1.20
-0.28
0.69
1.65
2.46
2.99
3.22
3.15
2.87
2.44
1.86
1.12
0.27
-0.58
-1.25
-1.60
-1.63
-1.47
-1.36
-1.53
-2.10
-3.05
-4.22
-5.43
-6.44
-7.13
-7.42
-7.38
-7.12
-6.84
-6.77
-7.09
-7.92
-9.19
-10.69
-12.04
-12.85
-12.85
-12.06
-10.71
-9.22
-7.91
-6.91
-6.11
-5.27
-4.20
-2.93
-1.69
-0.75
-0.27
-0.14
-0.06
0.32
1.18
2.44
3.84
5.03
5.79
6.04
5.77
5.05
4.00
2.88
2.21
2.78
5.36
10.32
17.38
25.43
32.90
38.23
40.43
39.35
35.58
30.09
23.88
17.62
11.63
6.09
1.13
-3.00
-6.06
-7.99
-9.06
-9.83
-10.96
-12.91
-15.76
-19.12
-22.43
-25.16
-27.01
-28.05
-28.52
-28.68
-28.72
-28.66
-28.47
-28.10
-27.55
-26.83
-25.95
-24.96
-23.95
-23.04
-22.36
-21.97
-21.87
-21.95
-22.03
-21.95
-21.60
-20.92
-19.94
-18.66
-17.09
-15.24
-13.11
-10.68
-7.81
-4.19
0.69
7.33
15.96
26.26
37.28
47.72
56.30
62.26
65.45
66.33
65.50
63.48
60.49
56.66
52.10
47.10
42.05
37.28
32.94
28.99
25.31
21.85
18.71
16.08
14.15
12.90
12.15
11.60
11.00
10.21
9.28
8.34
7.51
6.81
6.19
5.60
5.04
4.61
4.38
4.39
4.54
4.74
4.94
5.20
5.63
6.32
7.25
8.29
9.31
10.24
11.18
12.21
13.44
14.94
16.66
18.43
20.11
21.76
23.63
26.06
29.25
33.25
37.88
42.82
47.67
52.22
56.55
61.11
66.46
72.87
80.39
88.80
97.66
106.45
114.76
122.48
129.68
136.42
142.16
146.64
150.21
153.55
156.88
159.30
158.53
151.11
133.48
102.44
58.02
3.65
-55.91
-117.02
-178.03
-238.26
-296.38
-349.37
-394.42
-427.61
-445.58
-447.52
-436.36
-417.33
-395.39
-373.55
-352.40
-332.71
-313.05
-290.51
-262.10
-226.75
-185.08
-137.97
-85.75
-14.73
73.76
163.75
235.94
281.35
301.23
301.09
286.35
261.01
227.96
190.27
149.18
107.66
70.04
38.29
11.05
-15.22
-44.60
-80.87
-128.30
-176.44
-216.31
-240.03
-242.94
-223.33
-182.30
-124.77
-66.57
-14.17
26.15
50.41
60.40
62.07
62.68
66.05
73.75
84.45
96.03
105.86
112.43
116.41
118.73
119.23
116.50
108.91
95.74
78.63
59.53
40.25
22.49
7.19
-5.38
-15.34
-22.73
-27.85
-30.73
-32.43
-34.35
-37.20
-40.93
-45.02
-48.94
-52.36
-55.31
-57.36
-57.55
-54.11
-44.66
-27.28
-1.70
30.21
64.74
97.17
122.80
137.53
138.52
124.79
97.76
61.63
22.88
-11.13
-34.34
-43.92
-40.91
-29.39
-14.47
-0.28
11.09
19.32
24.84
27.95
28.58
26.78
23.20
19.13
16.00
14.54
14.45
14.53
13.43
10.43
5.83
0.79
-3.25
-5.24
-4.93
-2.82
0.20
3.29
6.02
8.37
10.60
12.86
15.08
16.92
18.03
18.22
17.63
16.60
15.50
14.47
13.44
12.22
10.75
9.18
7.84
7.07
7.03
7.58
8.34
8.90
8.96
8.45
7.47
6.28
5.08
3.99
3.03
2.06
0.97
-0.32
-1.82
-3.43
-4.96
-6.30
-7.44
-8.51
-9.75
-11.34
-13.27
-15.34
-17.27
-18.86
-20.09
-21.02
-21.72
-22.00
-21.58
-20.14
-17.59
-14.17
-10.34
-6.54
-3.02
0.20
3.20
6.00
8.52
10.54
11.94
12.77
13.19
13.43
13.65
13.86
14.07
14.21
14.31
14.40
14.53
14.71
14.91
15.11
15.24
15.31
15.28
15.16
14.98
14.76
14.58
14.49
14.49
14.56
14.66
14.73
14.80
14.89
15.12
15.52
16.03
16.51
16.70
16.40
15.52
14.20
12.75
11.60
11.13
11.61
13.13
15.65
19.07
23.29
28.16
33.52
39.23
45.19
51.34
57.72
64.38
71.36
78.64
86.13
93.72
101.26
108.58
115.49
121.75
127.15
131.52
134.78
136.76
137.26
135.92
132.51
127.10
120.30
113.11
106.51
101.00
96.34
91.61
85.78
78.30
69.37
59.67
49.77
39.57
28.17
14.42
-2.29
-21.51
-41.71
-60.91
-77.43
-90.50
-100.30
-107.64
-113.35
-117.96
-121.56
-124.03
-125.30
-125.47
-124.69
-122.84
-119.45
-113.82
-105.43
-94.45
-81.89
-69.42
-58.71
-50.65
-44.83
-39.65
-32.99
-23.15
-9.90
5.19
18.86
27.13
26.65
16.05
-3.54
-28.61
-54.36
-76.40
-91.82
-99.63
-100.15
-94.23
-82.55
-65.85
-45.21
-22.55
-0.83
16.63
27.37
30.92
29.19
25.54
22.82
22.38
23.36
23.26
19.23
9.73
-4.45
-20.46
-34.72
-45.70
-53.38
-59.04
-64.48
-71.21
-79.62
-88.55
-95.70
-98.63
-97.76
-93.55
-85.65
-72.89
-54.56
-31.55
-6.96
14.05
25.31
18.44
-10.02
-56.70
-113.40
-171.76
-226.68
-276.52
-321.06
-359.18
-391.77
-416.05
-426.42
-417.69
-388.94
-344.34
-290.74
-234.57
-153.15
-40.72
90.56
217.92
323.57
400.30
447.61
468.15
466.68
449.96
422.76
387.92
348.71
308.76
270.26
233.58
198.47
164.50
130.53
90.57
45.17
-3.97
-53.16
-98.80
-138.75
-172.47
-200.81
-225.64
-251.82
-283.42
-322.31
-366.63
-410.64
-445.80
-462.89
-455.53
-423.38
-374.08
-319.54
-271.60
-237.08
-216.12
-203.25
-190.36
-170.28
-139.14
-97.33
-47.91
4.93
57.68
108.29
156.42
203.47
251.84
303.62
359.29
416.66
470.71
514.51
540.77
543.32
519.17
470.19
403.18
328.72
258.16
199.60
154.82
118.63
81.36
34.01
-26.87
-96.55
-163.37
-213.31
-235.57
-226.73
-191.95
-143.22
-95.44
-61.80
-50.13
-60.72
-86.76
-117.06
-139.84
-146.21
-132.09
-98.08
-48.43
9.99
68.19
115.77
142.47
141.07
110.48
56.89
-7.95
-71.16
-123.59
-162.20
-189.04
-207.55
-219.23
-222.46
-214.18
-192.68
-159.35
-118.16
-73.32
-27.02
21.35
73.96
132.02
193.99
255.43
310.35
353.47
381.85
395.02
394.16
381.08
357.69
325.87
287.85
246.16
203.41
161.84
123.08
88.10
57.43
31.39
10.03
-7.00
-20.40
-31.12
-40.09
-48.02
-55.35
-62.26
-68.73
-74.42
-78.65
-80.33
-78.18
-71.31
-59.59
-43.95
-26.17
-8.34
7.71
20.72
29.94
34.81
34.89
30.04
20.98
9.57
-1.30
-8.66
-10.55
-6.99
-0.06
6.91
10.74
9.68
3.85
-5.03
-14.69
-23.26
-29.78
-34.22
-36.95
-38.40
-38.70
-37.82
-35.75
-32.74
-29.29
-26.07
-23.58
-22.03
-21.26
-20.83
-20.25
-19.18
-17.47
-15.15
-12.33
-9.09
-5.53
-1.82
1.77
4.81
6.86
7.66
7.20
5.80
3.94
2.14
0.78
0.09
0.15
0.95
2.36
4.12
5.84
7.01
7.20
6.24
4.31
1.93
-0.21
-1.56
-1.86
-1.22
-0.02
1.37
2.67
3.81
4.80
5.67
6.46
7.16
7.88
8.71
9.70
10.77
11.67
12.11
11.93
11.24
10.33
9.58
9.14
8.91
8.64
8.10
7.30
6.49
5.99
5.95
6.26
6.64
6.73
6.36
5.48
4.19
2.56
0.59
-1.67
-4.14
-6.59
-8.72
-10.34
-11.47
-12.36
-13.36
-14.70
-16.39
-18.10
-19.36
-19.76
-19.07
-17.37
-14.92
-12.09
-9.17
-6.36
-3.79
-1.61
0.02
0.97
1.26
1.10
0.84
0.82
1.22
2.06
3.15
4.25
5.15
5.68
5.77
5.37
4.52
3.36
2.06
0.80
-0.30
-1.13
-1.57
-1.52
-0.93
0.12
1.41
2.55
3.13
2.95
2.21
1.42
1.26
2.17
4.31
7.64
11.74
16.08
20.40
24.90
29.89
35.93
42.92
50.55
58.48
65.99
72.24
76.87
80.31
83.24
86.93
91.51
96.64
101.67
104.89
104.04
97.50
85.20
68.13
48.98
29.75
12.57
-0.20
-7.94
-12.34
-16.81
-25.49
-43.14
-72.74
-116.93
-175.86
-240.12
-296.29
-335.55
-355.70
-355.99
-343.49
-314.01
-265.72
-201.92
-130.08
-59.64
1.88
48.28
78.51
94.85
101.34
99.72
91.24
78.43
64.69
53.33
46.42
44.42
45.62
47.85
48.26
45.82
41.56
36.67
31.42
25.76
20.80
18.65
21.50
29.53
41.82
56.95
73.36
89.78
105.95
122.72
140.71
157.93
169.75
171.73
162.24
143.28
118.98
94.32
73.43
57.93
44.63
27.03
-1.22
-43.56
-99.44
-165.81
-238.14
-311.63
-370.65
-399.07
-391.47
-356.78
-308.36
-253.52
-194.42
-132.86
-73.51
-23.19
10.64
24.71
21.81
8.87
-4.81
-11.98
-8.72
6.26
33.21
70.63
115.76
165.69
208.83
233.16
230.41
202.17
159.85
118.33
87.78
70.42
62.41
57.44
51.38
42.78
32.42
21.98
13.08
6.79
3.79
4.56
8.63
15.08
22.25
28.45
32.51
33.80
32.95
29.16
22.34
12.99
2.84
-6.08
-12.18
-15.26
-16.57
-17.78
-19.95
-22.68
-24.60
-23.94
-19.80
-12.72
-4.47
2.73
7.50
9.79
10.50
10.63
10.12
7.12
-1.23
-16.95
-40.73
-71.04
-104.20
-134.86
-156.86
-165.09
-157.60
-136.84
-109.04
-82.42
-64.09
-58.41
-66.08
-83.39
-103.31
-117.47
-118.84
-104.07
-74.69
-37.23
3.74
43.50
79.47
111.44
140.12
164.86
182.55
185.48
171.20
141.88
104.11
67.53
40.81
28.33
28.79
36.63
44.68
47.51
42.15
28.15
8.46
-13.01
-31.27
-41.54
-40.81
-29.13
-9.39
13.20
32.70
44.30
46.80
41.77
31.57
18.12
2.76
-12.97
-26.96
-36.92
-40.95
-38.78
-32.37
-25.39
-21.55
-22.91
-28.92
-36.98
-44.01
-47.74
-47.50
-44.15
-39.31
-34.40
-30.09
-26.66
-23.51
-20.27
-16.83
-13.14
-9.24
-5.27
-1.42
1.99
4.68
6.61
7.95
9.10
10.48
12.25
14.19
15.84
16.72
16.56
15.45
13.66
11.56
9.53
7.70
6.04
4.43
2.71
0.85
-1.06
-2.86
-4.39
-5.54
-6.35
-6.99
-7.67
-8.60
-9.86
-11.34
-12.89
-14.31
-15.43
-16.18
-16.73
-17.17
-17.63
-18.18
-18.82
-19.51
-20.18
-20.79
-21.31
-21.70
-21.92
-21.96
-21.77
-21.36
-20.71
-19.85
-18.84
-17.68
-16.35
-14.77
-12.85
-10.54
-7.84
-4.88
-1.83
1.17
4.01
6.63
8.99
11.00
12.52
13.46
13.83
13.82
13.73
13.87
14.40
15.22
16.08
16.68
16.85
16.58
16.06
15.44
14.85
14.33
13.84
13.41
13.02
12.68
12.34
11.87
11.11
9.96
8.42
6.61
4.74
3.01
1.59
0.58
-0.05
-0.42
-0.76
-1.27
-2.08
-3.14
-4.19
-4.84
-4.75
-3.73
-1.83
0.72
3.56
6.36
8.89
11.08
12.95
14.54
15.85
16.82
17.43
17.72
17.82
17.92
18.13
18.41
18.59
18.49
18.06
17.43
16.87
16.59
16.63
16.79
16.80
16.47
15.83
15.03
14.26
13.61
13.00
12.29
11.35
10.15
8.76
7.28
5.78
4.28
2.76
1.24
-0.23
-1.58
-2.70
-3.50
-3.88
-3.72
-2.98
-1.68
0.02
1.86
3.58
4.99
6.06
6.88
7.57
8.20
8.71
8.99
8.91
8.45
7.73
6.97
6.38
6.11
6.12
6.24
6.26
5.99
5.37
4.49
3.52
2.62
1.86
1.19
0.49
-0.36
-1.37
-2.47
-3.51
-4.40
-5.13
-5.79
-6.50
-7.30
-8.18
-9.03
-9.77
-10.38
-10.87
-11.19
-11.23
-10.80
-9.74
-8.03
-5.86
-3.55
-1.46
0.19
1.40
2.31
3.11
3.90
4.68
5.35
5.78
5.94
5.90
5.74
5.58
5.47
5.38
5.25
5.01
4.63
4.11
3.50
2.82
2.09
1.32
0.47
-0.50
-1.66
-3.00
-4.51
-6.08
-7.60
-8.97
-10.14
-11.11
-11.95
-12.75
-13.59
-14.44
-15.20
-15.65
-15.54
-14.71
-13.16
-11.12
-8.94
-6.98
-5.52
-4.65
-4.32
-4.42
-4.78
-5.24
-5.64
-5.84
-5.75
-5.36
-4.74
-4.07
-3.53
-3.28
-3.38
-3.79
-4.34
-4.87
-5.18
-5.17
-4.83
-4.24
-3.53
-2.76
-1.95
-1.10
-0.22
0.61
1.25
1.60
1.66
1.51
1.34
1.27
1.40
1.72
2.23
2.90
3.71
4.63
5.58
6.43
7.05
7.40
7.47
7.34
7.02
6.53
5.81
4.83
3.62
2.34
1.11
0.06
-0.83
-1.68
-2.60
-3.62
-4.63
-5.36
-5.56
-5.16
-4.35
-3.49
-2.99
-3.07
-3.63
-4.37
-4.94
-5.14
-5.06
-4.97
-5.18
-5.83
-6.79
-7.79
-8.50
-8.70
-8.33
-7.43
-6.11
-4.46
-2.64
-0.79
0.88
2.21
3.14
3.69
4.01
4.23
4.47
4.77
5.13
5.48
5.74
5.81
5.60
5.04
4.14
2.99
1.73
0.55
-0.40
-1.01
-1.25
-1.18
-0.94
-0.76
-0.84
-1.33
-2.26
-3.55
-5.01
-6.39
-7.53
-8.31
-8.74
-8.93
-9.05
-9.28
-9.81
-10.72
-11.94
-13.27
-14.35
-14.75
-14.14
-12.39
-9.65
-6.32
-2.91
0.16
2.65
4.58
6.10
7.41
8.62
9.72
10.67
11.41
11.97
12.37
12.62
12.69
12.47
11.92
11.08
10.07
9.13
8.46
8.13
8.06
8.05
7.90
7.51
6.94
6.31
5.75
5.26
4.76
4.14
3.34
2.40
1.41
0.40
-0.67
-1.97
-3.66
-5.79
-8.21
-10.64
-12.73
-14.26
-15.17
-15.60
-15.76
-15.80
-15.77
-15.55
-14.93
-13.72
-11.89
-9.62
-7.22
-5.06
-3.39
-2.27
-1.57
-1.09
-0.68
-0.28
0.03
0.16
0.08
-0.14
-0.37
-0.49
-0.46
-0.35
-0.30
-0.43
-0.82
-1.44
-2.18
-2.89
-3.44
-3.73
-3.79
-3.71
-3.65
-3.75
-4.11
-4.72
-5.51
-6.37
-7.23
-8.03
-8.81
-9.57
-10.27
-10.83
-11.22
-11.41
-11.47
-11.50
-11.55
-11.55
-11.35
-10.72
-9.54
-7.76
-5.46
-2.77
0.12
3.06
5.90
8.52
10.80
12.71
14.24
15.38
16.14
16.47
16.34
15.81
15.03
14.25
13.70
13.49
13.54
13.65
13.59
13.28
12.78
12.25
11.80
11.41
10.93
10.22
9.24
8.09
6.97
6.01
5.23
4.51
3.68
2.64
1.44
0.21
-0.91
-1.86
-2.73
-3.66
-4.78
-6.10
-7.50
-8.77
-9.62
-9.85
-9.38
-8.28
-6.76
-5.11
-3.61
-2.43
-1.59
-1.03
-0.57
-0.02
0.77
1.88
3.32
4.97
6.63
8.03
8.94
9.23
8.98
8.44
7.91
7.68
7.83
8.32
8.94
9.49
9.83
9.90
9.74
9.47
9.15
8.84
8.51
8.10
7.59
7.00
6.43
6.01
5.84
5.92
6.08
6.11
5.80
5.08
4.03
2.84
1.62
0.40
-0.89
-2.29
-3.72
-4.92
-5.58
-5.45
-4.52
-3.03
-1.36
0.10
1.10
1.58
1.66
1.53
1.37
1.28
1.22
1.10
0.87
0.55
0.28
0.27
0.62
1.27
1.99
2.49
2.59
2.30
1.83
1.40
1.13
0.99
0.82
0.48
-0.04
-0.69
-1.32
-1.83
-2.18
-2.33
-2.29
-2.05
-1.62
-1.11
-0.72
-0.68
-1.24
-2.51
-4.52
-7.13
-10.09
-13.06
-15.64
-17.51
-18.45
-18.42
-17.55
-16.02
-14.07
-11.82
-9.34
-6.66
-3.79
-0.78
2.21
5.02
7.49
9.50
10.99
11.96
12.49
12.67
12.61
12.34
11.83
10.97
9.70
8.04
6.10
4.10
2.22
0.58
-0.78
-1.84
-2.53
-2.72
-2.28
-1.17
0.44
2.23
3.76
4.65
4.68
3.79
2.13
-0.06
-2.52
-4.96
-7.17
-9.05
-10.63
-12.00
-13.30
-14.58
-15.75
-16.61
-16.94
-16.54
-15.34
-13.47
-11.15
-8.70
-6.46
-4.70
-3.62
-3.30
-3.67
-4.54
-5.70
-6.92
-8.07
-9.13
-10.17
-11.33
-12.71
-14.33
-16.08
-17.70
-18.91
-19.46
-19.33
-18.70
-17.93
-17.51
-17.86
-19.30
-21.96
-25.74
-30.44
-35.70
-41.10
-46.18
-50.50
-53.64
-55.22
-54.95
-52.54
-47.85
-41.00
-32.46
-22.95
-13.36
-4.48
3.14
9.27
14.13
18.22
22.08
26.13
30.54
35.28
40.21
45.14
49.95
54.73
59.55
64.35
68.83
72.63
75.45
77.25
78.16
78.41
78.82
80.22
83.23
88.04
94.57
102.64
111.89
121.66
130.86
139.19
146.40
151.95
154.94
154.65
150.99
144.59
136.33
126.79
117.62
109.72
102.52
93.79
80.98
62.69
39.50
13.70
-11.62
-31.31
-41.06
-38.82
-25.31
-2.62
27.52
64.33
107.41
142.08
155.06
140.47
103.99
57.21
9.40
-35.48
-77.10
-116.31
-153.22
-183.97
-203.12
-206.38
-194.35
-171.07
-142.65
-115.95
-96.98
-89.35
-91.90
-100.84
-112.01
-121.96
-129.79
-136.58
-143.07
-148.04
-148.08
-138.35
-116.17
-83.40
-46.50
-13.80
8.19
17.48
16.67
11.23
7.22
9.19
19.16
36.85
60.29
86.55
112.16
133.27
146.11
147.95
138.17
118.33
92.22
64.54
39.40
19.02
3.10
-10.65
-25.47
-42.09
-60.71
-80.37
-99.48
-116.46
-130.27
-140.40
-146.77
-149.58
-149.15
-146.21
-141.26
-134.38
-125.18
-113.00
-97.29
-78.03
-55.69
-31.06
-5.33
20.11
43.46
62.45
74.89
79.60
77.12
69.66
60.30
51.37
43.61
36.00
26.70
14.27
-1.43
-19.19
-37.14
-53.58
-67.79
-79.93
-90.63
-100.43
-109.39
-117.20
-123.33
-127.31
-128.68
-126.85
-121.01
-110.40
-94.97
-75.97
-56.09
-38.74
-26.76
-21.22
-20.87
-22.73
-23.51
-20.95
-14.61
-5.49
4.80
15.05
24.75
33.79
41.84
48.00
50.98
49.86
44.89
37.66
30.65
26.19
25.48
28.19
32.91
37.99
42.43
46.19
49.88
54.22
59.49
65.41
71.37
76.83
81.47
85.26
88.31
90.75
92.58
93.75
94.12
93.49
91.58
88.08
82.95
76.45
69.20
61.93
55.12
48.82
42.63
36.12
29.16
22.14
15.82
10.99
8.04
6.92
7.21
8.41
10.19
12.43
15.06
17.90
20.64
22.94
24.55
25.39
25.61
25.49
25.33
25.39
25.82
26.65
27.78
28.97
29.93
30.36
29.90
28.13
24.64
19.14
11.69
2.84
-6.47
-15.13
-22.34
-27.82
-31.85
-35.00
-37.83
-40.70
-43.69
-46.84
-50.10
-53.41
-56.54
-59.05
-60.34
-59.93
-57.61
-53.56
-48.17
-41.90
-35.07
-27.94
-20.74
-13.80
-7.53
-2.15
2.36
6.28
9.88
13.21
15.94
17.53
17.58
16.20
14.01
11.89
10.52
10.06
10.18
10.26
9.88
8.96
7.76
6.55
5.44
4.29
2.90
1.22
-0.53
-1.97
-2.73
-2.78
-2.42
-2.20
-2.68
-4.06
-6.17
-8.49
-10.46
-11.67
-12.03
-11.76
-11.16
-10.49
-9.82
-9.09
-8.18
-7.01
-5.56
-3.87
-2.00
-0.02
1.95
3.71
5.02
5.63
5.45
4.58
3.39
2.46
2.46
3.90
6.96
11.38
16.48
21.35
25.13
27.26
27.54
26.11
23.35
19.66
15.47
11.10
6.82
2.81
-0.79
-3.92
-6.57
-8.83
-10.82
-12.65
-14.41
-16.06
-17.52
-18.58
-19.11
-19.00
-18.29
-17.04
-15.35
-13.32
-11.06
-8.67
-6.23
-3.72
-0.89
2.46
6.45
10.85
15.19
18.88
21.61
23.51
25.13
27.23
30.48
35.22
41.43
48.74
56.51
63.94
70.10
74.24
75.99
75.56
73.70
71.18
68.46
65.26
60.52
52.79
40.99
25.11
6.47
-12.72
-30.31
-44.90
-56.09
-64.30
-70.20
-74.29
-76.72
-77.43
-76.48
-74.50
-72.32
-70.52
-69.41
-69.04
-69.34
-70.01
-70.54
-70.26
-69.29
-67.79
-65.66
-62.74
-59.03
-54.67
-49.60
-43.57
-36.39
-29.75
-24.98
-22.03
-19.63
-16.34
-11.40
-4.71
3.34
12.08
18.86
23.04
26.75
32.98
42.07
49.98
49.58
33.89
-0.36
-53.80
-120.45
-189.12
-247.80
-288.35
-307.70
-306.19
-285.87
-231.49
-144.07
-44.12
39.77
90.55
109.40
108.68
102.13
98.57
100.26
101.87
98.81
91.28
83.38
78.85
78.46
80.51
82.45
82.53
78.23
69.55
59.31
51.25
47.45
47.40
49.11
50.49
50.38
47.27
41.33
34.44
28.99
26.32
26.13
27.15
28.13
28.39
27.21
24.75
21.91
19.76
18.79
18.74
18.95
19.04
18.97
18.71
18.50
18.52
18.84
19.16
19.14
18.54
17.64
16.94
16.91
17.58
18.41
18.39
16.46
12.05
5.17
-3.12
-11.49
-19.07
-25.56
-31.40
-37.42
-44.20
-51.43
-59.21
-67.33
-75.60
-83.42
-89.07
-89.63
-81.95
-64.24
-37.52
-5.92
24.76
49.44
65.24
72.27
73.07
70.58
67.07
63.63
60.51
58.25
58.01
61.19
68.31
77.96
86.28
88.12
79.01
57.71
27.46
-4.89
-31.54
-47.16
-50.34
-43.87
-32.65
-21.05
-11.13
-2.67
5.37
13.27
19.87
23.37
22.40
17.01
8.67
-0.45
-8.34
-14.27
-18.19
-21.88
-26.65
-32.97
-40.13
-46.56
-50.62
-51.37
-49.22
-45.70
-42.99
-42.61
-44.94
-49.04
-53.14
-55.62
-55.59
-53.77
-51.17
-49.43
-49.76
-52.90
-59.09
-67.83
-77.49
-84.93
-86.08
-77.22
-57.13
-28.13
4.23
33.16
53.42
63.26
64.60
61.30
56.98
53.31
50.09
46.44
41.99
37.43
34.04
32.70
33.22
34.42
34.85
33.37
29.92
25.37
21.04
18.07
16.94
17.29
18.16
18.48
17.52
15.28
12.30
9.43
7.41
6.51
6.56
6.99
7.21
6.83
5.81
4.42
3.07
2.08
1.60
1.51
1.60
1.62
1.40
0.94
0.32
-0.33
-0.92
-1.39
-1.79
-2.10
-2.37
-2.62
-2.82
-3.07
-3.40
-3.91
-4.62
-5.52
-6.48
-7.34
-8.00
-8.45
-8.84
-9.37
-10.28
-11.66
-13.41
-15.26
-16.86
-17.98
-18.59
-18.97
-19.53
-20.69
-22.61
-25.07
-27.55
-29.34
-29.85
-28.83
-26.45
-23.09
-19.11
-14.62
-9.45
-3.15
4.63
14.16
25.54
38.70
53.28
68.24
81.65
90.75
92.76
86.14
71.62
52.25
32.43
16.16
5.66
0.92
0.38
2.16
5.05
8.64
12.79
16.99
20.16
20.94
18.44
12.62
4.31
-5.25
-14.95
-24.21
-33.05
-41.68
-50.14
-58.08
-64.73
-69.12
-70.48
-68.64
-64.03
-57.48
-49.74
-41.22
-32.06
-22.49
-13.26
-5.78
-1.73
-2.37
-7.67
-16.07
-24.93
-31.54
-34.34
-33.59
-31.23
-29.93
-31.87
-37.72
-46.48
-55.97
-63.57
-66.96
-64.69
-56.30
-42.21
-24.21
-4.96
12.77
27.30
38.80
49.31
61.68
78.09
98.65
121.16
141.89
157.15
164.51
163.36
154.70
140.45
122.90
104.38
86.98
72.49
61.99
55.67
52.64
51.18
49.22
44.73
35.99
21.86
2.03
-22.63
-49.87
-76.27
-97.96
-111.65
-115.56
-109.69
-95.44
-74.97
-50.62
-24.92
-0.67
18.98
31.14
34.04
27.84
14.70
-1.92
-18.58
-32.82
-43.59
-50.82
-54.73
-55.36
-52.61
-46.61
-38.13
-28.57
-19.58
-12.63
-8.48
-7.08
-7.69
-9.42
-11.71
-14.49
-18.00
-22.31
-26.89
-30.69
-32.59
-32.18
-30.17
-28.22
-28.17
-30.90
-35.77
-40.68
-43.01
-40.78
-33.54
-22.49
-9.92
1.77
10.90
16.90
20.20
21.82
22.65
23.10
23.13
22.51
21.22
19.71
18.71
18.85
20.25
22.44
24.73
26.74
28.76
31.61
36.01
41.91
48.12
52.59
53.24
48.68
38.64
23.61
4.41
-18.14
-43.03
-68.52
-91.80
-109.29
-117.60
-114.74
-100.99
-78.84
-52.13
-24.83
0.15
21.49
39.25
54.23
67.03
77.29
83.47
83.25
74.54
56.70
31.53
3.39
-21.71
-37.83
-41.02
-30.59
-9.31
17.44
43.36
62.87
72.43
71.03
60.06
42.54
22.20
2.53
-13.71
-24.87
-30.31
-30.38
-26.25
-19.81
-13.45
-9.62
-10.32
-16.57
-28.17
-43.83
-61.67
-79.70
-96.24
-109.98
-119.82
-124.77
-124.09
-117.72
-106.67
-93.21
-80.41
-71.28
-67.79
-70.19
-76.91
-85.14
-91.73
-93.94
-89.95
-79.05
-61.79
-40.03
-16.89
3.84
18.77
26.12
26.59
23.15
20.06
21.32
29.28
43.98
63.43
84.42
103.56
118.21
127.00
130.00
128.58
124.84
120.84
117.90
116.10
114.53
111.86
107.23
100.79
93.73
87.71
84.06
83.00
83.53
83.72
81.49
75.37
64.92
50.75
34.12
16.53
-0.58
-15.97
-28.48
-37.18
-41.56
-41.87
-39.29
-35.94
-34.35
-36.82
-44.55
-57.10
-72.19
-86.21
-95.13
-95.87
-87.48
-71.73
-52.72
-35.54
-24.42
-21.23
-24.84
-31.80
-37.95
-40.06
-36.83
-28.86
-17.70
-4.80
9.11
23.91
39.39
54.70
68.10
77.53
81.30
78.86
71.03
59.74
47.44
36.55
28.97
25.77
27.06
31.98
38.86
45.59
50.23
51.45
48.85
42.80
34.05
23.33
11.12
-2.34
-16.71
-31.32
-45.12
-56.92
-65.70
-70.85
-72.33
-70.46
-65.86
-59.32
-51.86
-44.79
-39.53
-37.20
-38.06
-41.24
-44.82
-46.63
-45.16
-40.18
-32.80
-24.68
-17.19
-10.73
-4.77
1.47
8.35
15.36
21.43
25.60
27.74
28.70
29.95
32.70
37.30
43.04
48.70
53.25
56.44
58.69
60.49
61.78
61.69
58.88
52.58
43.46
33.90
27.31
26.68
33.20
45.60
60.59
74.15
82.97
85.44
81.74
73.24
61.63
48.24
33.94
19.29
4.94
-8.23
-19.23
-27.14
-31.47
-32.29
-30.26
-26.53
-22.74
-20.76
-22.47
-29.22
-41.32
-57.66
-75.81
-92.71
-105.61
-112.96
-114.66
-111.72
-105.49
-96.97
-86.56
-74.35
-60.50
-45.58
-30.45
-15.95
-2.69
9.05
19.18
27.64
34.44
39.84
44.51
49.54
56.08
64.82
75.63
87.30
97.83
104.98
107.04
103.52
95.38
84.81
74.40
66.16
60.84
57.78
55.45
52.26
47.29
40.45
32.26
23.32
14.03
4.48
-5.20
-14.58
-22.81
-28.82
-31.79
-31.56
-28.85
-25.18
-22.57
-23.01
-27.89
-37.62
-51.37
-67.16
-82.41
-94.69
-102.50
-105.76
-105.67
-103.97
-102.01
-100.05
-97.21
-91.99
-83.14
-70.32
-54.24
-36.21
-17.65
0.43
17.41
32.88
46.38
57.34
65.31
70.13
72.05
71.61
69.37
65.85
61.53
57.01
53.16
50.99
51.39
54.70
60.44
67.36
73.79
78.13
79.32
76.96
71.29
62.81
52.15
39.88
26.55
12.79
-0.69
-13.12
-23.81
-32.23
-38.12
-41.57
-43.05
-43.52
-44.44
-47.53
-54.29
-65.43
-80.33
-96.98
-112.42
-123.67
-128.73
-127.23
-120.39
-110.33
-99.03
-87.54
-75.71
-62.70
-47.83
-31.20
-13.83
2.96
18.31
32.37
46.14
60.65
76.08
91.28
104.14
112.55
115.40
112.86
106.02
96.08
83.82
69.86
55.41
42.95
35.97
37.70
49.32
68.83
91.22
110.12
120.01
117.94
104.01
80.59
50.90
17.92
-16.08
-49.27
-79.74
-105.34
-123.97
-134.16
-135.76
-130.25
-120.57
-110.42
-103.42
-102.21
-107.77
-119.31
-134.45
-149.94
-162.42
-169.36
-169.66
-163.89
-153.88
-141.78
-129.04
-115.56
-99.73
-79.14
-51.83
-17.29
23.08
66.42
109.22
148.16
180.54
204.32
218.10
221.22
214.14
198.80
178.58
157.60
139.55
126.51
118.29
112.72
106.86
98.48
87.26
74.91
64.31
58.02
56.96
59.90
63.97
65.86
63.12
54.80
41.41
24.22
4.63
-16.25
-37.56
-58.32
-77.20
-92.54
-102.70
-106.65
-104.43
-97.39
-88.02
-79.47
-74.66
-75.55
-82.47
-94.01
-107.32
-118.95
-125.79
-125.85
-118.70
-105.38
-88.02
-69.20
-51.37
-36.42
-25.34
-18.09
-13.54
-9.66
-3.91
6.00
21.31
41.66
64.95
87.99
107.51
121.26
128.61
130.48
128.58
124.49
118.93
111.52
101.25
87.12
68.95
47.87
26.26
7.32
-5.90
-11.43
-9.12
-0.81
10.24
20.28
26.10
25.63
18.12
3.93
-15.81
-39.37
-64.49
-88.52
-108.77
-123.10
-130.66
-132.27
-130.30
-127.90
-127.97
-132.17
-140.45
-151.15
-161.56
-168.67
-169.78
-162.93
-147.15
-122.59
-90.55
-53.42
-14.30
23.53
57.22
84.71
104.81
117.10
121.80
119.80
112.82
103.28
93.88
86.81
82.96
81.66
81.00
79.01
74.64
68.42
62.16
58.05
57.58
60.84
66.49
72.39
76.42
77.28
74.76
69.66
63.32
56.98
51.35
46.32
41.23
35.18
27.53
18.20
7.56
-3.63
-14.47
-24.04
-31.38
-35.65
-36.34
-33.57
-28.28
-22.09
-16.76
-13.66
-13.23
-14.98
-17.77
-20.26
-21.23
-19.68
-14.89
-6.60
4.64
17.19
28.40
35.28
35.56
28.77
16.59
2.32
-10.35
-18.70
-21.76
-20.22
-15.66
-9.62
-3.01
3.81
10.64
16.92
21.70
24.00
23.40
20.53
17.00
14.81
15.41
18.80
23.28
25.89
23.59
14.50
-1.32
-21.84
-43.80
-63.84
-79.38
-89.21
-93.46
-93.35
-90.79
-87.91
-86.63
-88.08
-92.36
-98.36
-104.14
-107.55
-106.88
-101.33
-91.05
-76.86
-59.86
-41.10
-21.45
-1.63
17.65
35.66
51.60
64.61
73.83
78.58
78.58
74.27
66.96
58.88
52.88
51.77
57.50
70.37
88.56
108.50
125.75
136.39
138.16
131.06
116.97
98.74
78.99
59.24
39.72
19.75
-1.60
-24.97
-50.42
-77.37
-104.70
-130.72
-153.38
-170.55
-180.64
-183.23
-179.55
-172.06
-163.68
-156.55
-151.32
-147.19
-142.70
-136.64
-128.53
-118.49
-106.69
-93.03
-77.28
-59.64
-41.25
-24.05
-10.15
-0.93
3.46
4.01
2.27
-0.33
-2.76
-4.37
-4.63
-3.04
0.91
7.55
17.01
29.25
44.34
62.60
84.46
110.18
139.35
170.56
201.54
229.66
252.70
269.48
279.89
284.22
282.34
273.29
255.70
228.91
194.14
154.77
115.49
80.57
52.38
30.86
14.28
0.64
-11.27
-21.58
-30.04
-36.91
-43.25
-50.49
-59.46
-69.74
-79.75
-87.42
-91.23
-90.72
-86.34
-78.69
-67.79
-52.85
-32.55
-5.88
27.22
65.40
105.94
145.17
179.16
204.36
218.25
219.70
208.97
187.49
157.30
120.68
79.92
37.39
-4.29
-42.31
-74.01
-97.57
-112.56
-120.07
-122.33
-121.90
-120.92
-120.54
-121.00
-121.88
-122.68
-123.14
-123.39
-123.82
-124.72
-126.04
-127.29
-127.66
-126.28
-122.50
-116.06
-107.01
-95.66
-82.44
-68.00
-53.23
-39.32
-27.60
-19.12
-14.36
-12.95
-13.83
-15.68
-17.45
-18.66
-19.46
-20.35
-21.89
-24.49
-28.37
-33.60
-40.18
-47.99
-56.77
-66.11
-75.46
-84.30
-92.19
-98.74
-103.62
-106.62
-107.73
-107.38
-106.52
-106.59
-109.14
-115.29
-125.20
-137.77
-151.04
-162.99
-172.61
-180.35
-187.76
-196.30
-206.04
-215.04
-219.85
-216.98
-204.44
-182.45
-153.17
-119.48
-83.75
-47.16
-9.80
28.96
70.08
114.37
161.97
211.68
260.46
303.51
335.38
351.81
351.19
335.03
307.25
272.67
235.84
200.40
168.99
143.12
122.83
106.56
91.50
74.86
55.53
35.14
17.62
7.31
6.52
14.14
25.99
36.89
43.12
43.97
41.44
38.65
37.90
39.64
42.76
45.85
48.38
51.04
54.84
59.96
65.11
68.00
66.70
60.89
52.16
43.17
36.30
32.75
32.38
34.48
38.53
44.36
51.84
60.48
69.28
77.23
83.75
88.82
92.66
95.22
96.05
94.56
90.44
83.71
74.50
62.63
47.47
28.46
6.07
-17.46
-38.19
-51.52
-54.01
-44.95
-27.06
-5.65
13.17
24.83
27.73
23.62
16.45
10.55
8.94
12.62
21.23
34.28
52.11
75.78
105.73
140.38
175.67
206.18
227.37
237.66
239.05
235.81
232.03
229.59
227.52
223.18
214.40
201.21
186.06
172.52
163.27
158.57
156.02
151.58
141.35
123.08
96.74
64.02
27.25
-11.74
-52.18
-94.24
-138.46
-185.28
-234.99
-287.72
-343.50
-401.92
-461.66
-520.08
-573.16
-615.95
-643.47
-651.70
-638.63
-605.04
-554.77
-494.35
-431.64
-373.78
-325.15
-286.03
-252.68
-219.05
-179.31
-130.26
-72.52
-10.00
51.92
108.11
154.99
190.80
215.42
230.40
239.13
246.60
258.45
279.07
309.50
346.42
382.87
410.78
424.23
421.98
407.74
388.51
371.52
361.37
358.52
359.42
358.11
348.44
326.20
290.26
242.67
187.76
130.74
76.35
27.97
-13.00
-47.18
-76.83
-105.35
-136.45
-173.21
-216.80
-265.42
-314.06
-355.39
-381.62
-386.76
-368.69
-330.02
-277.65
-220.70
-167.79
-124.69
-93.45
-73.15
-61.87
-58.76
-64.39
-79.89
-104.61
-134.04
-159.92
-172.87
-166.67
-141.99
-107.65
-77.51
-65.35
-78.87
-116.23
-166.61
-214.63
-246.34
-254.11
-238.43
-205.35
-162.91
-117.08
-69.91
-20.42
33.06
90.29
148.71
201.06
241.47
265.87
273.77
268.34
255.04
239.46
225.59
214.84
206.55
199.84
194.15
189.78
187.27
186.42
185.90
183.73
178.14
168.36
155.11
139.67
123.57
108.26
94.91
84.12
75.35
66.48
53.91
33.85
3.83
-36.06
-82.98
-132.66
-181.36
-227.60
-272.60
-319.16
-369.38
-422.96
-476.59
-524.87
-562.12
-584.18
-589.16
-577.12
-549.13
-506.64
-451.67
-387.46
-318.86
-251.71
-191.14
-139.90
-97.70
-62.21
-30.91
-2.66
22.09
42.28
57.40
67.71
73.83
75.83
73.38
66.68
57.83
51.06
51.29
61.71
81.83
107.50
132.94
153.38
167.01
174.98
179.93
184.33
189.34
194.92
200.42
205.16
208.71
210.76
211.02
209.23
205.27
199.28
191.81
183.70
175.95
169.40
164.28
160.00
155.24
148.57
139.11
127.09
113.71
100.53
88.82
79.13
71.30
64.83
59.13
53.68
47.98
41.71
34.78
27.50
20.44
14.19
9.06
4.95
1.58
-1.35
-3.93
-6.18
-8.24
-10.38
-12.88
-15.67
-18.18
-19.52
-18.89
-16.16
-12.03
-7.76
-4.60
-3.21
-3.37
-4.17
-4.62
-4.06
-2.49
-0.43
1.44
2.68
3.20
3.21
3.05
2.98
3.17
3.73
4.73
6.11
7.70
9.20
10.29
10.81
10.77
10.40
9.95
9.60
9.46
9.64
10.33
11.80
14.25
17.72
22.10
27.25
33.14
39.88
47.50
55.77
64.01
71.34
77.03
80.86
83.12
84.34
84.84
84.51
82.91
79.77
75.28
70.14
65.26
61.33
58.47
56.33
54.24
51.59
48.02
43.56
38.58
33.87
30.50
29.56
31.68
36.61
43.08
49.19
52.99
53.23
49.65
42.87
33.97
24.23
14.77
6.29
-1.41
-9.69
-20.99
-38.02
-62.24
-92.53
-124.94
-154.00
-175.17
-187.13
-192.43
-195.91
-201.83
-211.42
-222.31
-230.12
-231.02
-223.58
-208.89
-189.35
-167.28
-144.43
-122.51
-103.99
-92.36
-91.09
-102.02
-124.19
-153.66
-184.53
-210.56
-226.73
-230.24
-220.79
-200.05
-170.86
-136.18
-98.37
-59.15
-20.19
16.16
46.60
67.57
76.63
73.59
60.83
42.56
23.35
6.75
-5.46
-13.13
-17.13
-18.66
-18.87
-18.68
-18.59
-18.51
-17.55
-14.06
-6.15
7.48
26.77
50.18
75.45
100.68
125.13
149.17
173.03
195.56
213.58
222.77
219.73
203.95
178.45
148.51
119.30
93.69
71.54
50.57
28.12
2.76
-24.96
-52.76
-77.13
-93.97
-99.44
-91.02
-68.76
-36.05
0.88
34.81
59.74
72.45
72.68
