1643370609.00
64.000000
-0.00
-0.00
-0.00
-0.00
-0.00
-0.00
-0.00
-0.00
-0.00
-0.00
0.00
0.01
0.01
-0.00
-0.03
-0.05
-0.05
0.00
0.13
0.36
0.66
1.01
1.37
1.72
2.06
2.40
2.79
3.24
3.80
4.42
5.06
5.67
6.21
6.70
7.19
7.76
8.45
9.38
10.46
11.58
12.64
13.57
14.42
15.35
16.57
18.23
20.54
23.33
26.32
29.21
31.84
34.28
36.84
39.96
43.97
49.27
55.52
62.21
68.75
74.80
80.42
86.08
92.51
100.27
109.92
120.99
132.68
144.12
154.71
164.46
173.99
184.64
195.16
207.88
223.43
241.94
262.19
281.24
294.72
297.93
287.53
262.71
225.96
181.17
132.73
83.87
36.11
-10.37
-55.76
-99.76
-141.49
-179.46
-212.73
-240.73
-263.12
-279.45
-289.06
-291.59
-286.78
-274.89
-256.66
-233.65
-207.64
-180.30
-152.75
-125.54
-98.60
-71.48
-43.74
-15.14
14.13
43.64
72.89
101.86
130.44
158.41
185.34
210.41
232.61
250.83
264.15
272.14
274.77
272.12
264.28
251.16
232.34
207.50
176.68
140.59
100.73
59.12
17.67
-22.39
-60.76
-98.02
-135.05
-172.25
-209.11
-244.10
-275.27
-301.49
-322.77
-340.55
-357.26
-375.24
-395.74
-419.13
-445.01
-472.38
-499.72
-524.28
-542.57
-551.36
-549.29
-537.70
-520.46
-501.86
-484.87
-470.04
-455.45
-437.88
-414.47
-383.60
-345.32
-301.23
-253.61
-204.16
-153.57
-101.05
-45.54
13.21
73.49
131.30
182.23
224.00
257.52
286.58
315.33
344.79
371.69
389.63
391.64
373.65
336.96
287.89
235.78
190.34
157.54
137.86
126.90
117.19
102.66
81.23
55.56
30.86
12.15
1.20
-3.89
-6.60
-10.14
-14.87
-18.93
-19.54
-15.10
-6.35
3.64
11.47
15.10
15.17
15.05
18.52
27.24
38.87
47.37
45.72
30.14
2.73
-29.37
-57.18
-74.41
-79.87
-76.32
-67.95
-56.83
-42.86
-25.13
-4.34
16.39
32.57
40.00
36.47
21.93
-1.59
-30.37
-59.24
-82.70
-96.19
-97.58
-88.16
-71.50
-51.95
-31.66
-10.30
13.95
41.94
71.34
97.00
112.62
114.41
102.94
82.93
60.99
43.05
32.19
28.30
29.50
33.91
40.06
46.55
50.86
49.41
39.58
22.15
2.55
-10.96
-11.32
3.53
29.55
58.25
81.68
95.90
102.21
104.89
107.75
111.26
112.41
107.39
93.93
73.46
49.99
28.46
12.67
4.52
3.67
8.52
17.04
27.55
38.96
50.76
62.52
73.19
81.58
86.22
86.29
81.43
70.97
53.76
28.05
-7.47
-51.27
-97.76
-137.52
-160.46
-160.07
-136.60
-96.95
-51.67
-10.52
20.61
39.74
47.80
46.91
39.49
28.66
18.89
14.85
20.18
35.47
57.60
80.58
98.23
107.11
107.76
103.95
100.03
97.88
96.22
92.07
83.65
72.29
61.98
56.64
57.25
60.66
61.18
54.30
39.07
18.13
-4.48
-25.46
-43.27
-57.48
-66.38
-66.89
-55.25
-29.28
9.73
56.46
102.50
138.16
155.20
149.37
122.01
80.19
34.43
-5.31
-32.23
-44.51
-43.94
-33.81
-17.14
3.67
26.23
47.82
65.90
78.93
86.26
87.92
83.34
71.49
51.79
25.53
-3.51
-30.09
-49.51
-60.44
-64.64
-65.39
-65.09
-64.32
-62.11
-57.48
-50.69
-42.89
-35.71
-29.94
-25.02
-19.33
-11.30
-0.51
12.17
24.10
31.92
32.48
23.74
5.22
-21.10
-51.62
-81.90
-107.60
-125.86
-135.55
-136.86
-131.01
-120.22
-106.72
-91.70
-74.67
-53.54
-25.90
9.45
50.43
91.57
125.47
144.89
145.26
126.08
91.30
48.06
4.71
-31.91
-57.78
-71.98
-75.99
-72.20
-63.40
-51.70
-38.40
-23.65
-7.28
11.16
31.24
51.18
67.30
75.49
72.82
59.79
41.03
23.94
15.39
17.84
28.77
42.60
53.46
56.85
50.97
35.34
10.04
-23.65
-62.64
-101.46
-133.02
-151.09
-153.43
-143.46
-130.02
-123.43
-130.62
-151.87
-180.11
-203.28
-209.52
-191.69
-150.25
-92.56
-29.86
26.97
70.92
100.14
116.59
123.96
125.71
123.59
117.22
105.11
86.24
61.24
33.35
7.62
-11.52
-22.32
-25.91
-25.18
-22.25
-16.74
-6.62
9.65
30.81
51.79
65.62
66.80
53.30
27.22
-5.75
-38.56
-65.43
-82.90
-90.82
-92.28
-92.15
-94.81
-101.79
-110.60
-116.28
-114.53
-104.78
-91.87
-83.40
-84.59
-94.75
-106.46
-109.83
-98.36
-72.96
-41.65
-14.75
1.29
7.47
11.52
23.25
48.56
85.68
126.34
160.09
178.48
178.58
163.45
140.23
117.43
101.75
95.52
96.28
98.82
98.15
93.17
87.82
89.09
103.70
133.20
172.52
211.93
241.31
253.76
247.23
223.60
186.53
140.25
90.32
44.03
9.42
-7.67
-6.83
6.43
22.78
33.23
33.12
22.69
4.93
-17.24
-42.52
-71.22
-103.29
-137.76
-173.19
-208.43
-242.67
-274.49
-301.58
-320.97
-330.03
-328.25
-317.57
-301.33
-282.31
-261.70
-239.14
-214.04
-186.18
-155.94
-123.92
-91.12
-59.31
-31.31
-9.96
3.22
9.47
12.99
19.18
32.39
53.44
79.36
104.31
121.80
126.64
116.34
92.03
57.95
20.55
-13.27
-38.46
-53.13
-58.47
-57.76
-53.97
-48.37
-40.17
-27.05
-6.75
21.46
56.80
97.56
141.78
187.92
234.41
278.91
318.25
348.73
366.85
370.75
360.58
338.71
309.93
278.57
247.86
219.49
193.59
169.63
146.46
123.13
99.03
73.32
44.85
12.63
-23.47
-62.32
-100.87
-134.91
-159.94
-173.24
-174.38
-165.55
-150.35
-132.53
-115.07
-100.00
-89.35
-85.24
-89.46
-102.32
-121.83
-143.20
-160.53
-168.49
-164.13
-148.03
-123.65
-96.52
-72.85
-58.07
-55.42
-64.66
-81.71
-99.99
-112.31
-113.48
-102.10
-80.60
-53.94
-27.87
-6.89
6.02
10.17
7.22
0.91
-4.19
-4.63
-0.22
4.49
1.99
-14.58
-47.18
-90.88
-134.62
-165.43
-173.22
-154.68
-115.03
-65.85
-21.85
4.57
6.84
-13.43
-47.27
-81.47
-103.39
-105.33
-86.04
-50.34
-5.53
41.12
84.39
120.82
148.07
165.20
173.45
177.11
183.01
198.06
225.69
263.56
304.32
338.45
358.78
363.29
354.32
335.74
309.56
274.44
227.09
166.29
95.47
23.38
-38.38
-79.62
-96.28
-92.08
-76.45
-60.82
-54.17
-60.28
-77.26
-99.67
-121.29
-137.52
-146.69
-149.38
-148.17
-146.18
-146.17
-150.31
-159.93
-174.99
-193.35
-211.30
-223.74
-225.63
-214.32
-190.29
-157.39
-121.53
-88.78
-63.29
-46.02
-35.40
-28.07
-20.57
-10.59
2.09
16.22
30.41
44.67
60.99
82.37
111.04
146.71
186.12
223.53
253.35
271.63
276.88
270.51
256.27
239.06
224.38
216.53
216.07
218.67
215.65
197.31
158.08
100.96
36.73
-20.50
-60.76
-82.23
-91.28
-96.53
-103.34
-110.85
-113.48
-106.67
-90.83
-71.61
-56.38
-49.77
-51.13
-56.48
-61.91
-66.38
-71.91
-80.81
-93.30
-107.48
-120.57
-131.29
-139.91
-147.48
-153.81
-157.02
-154.57
-144.85
-129.03
-110.63
-94.39
-83.52
-78.35
-75.47
-69.70
-57.26
-38.56
-19.12
-7.05
-8.91
-25.22
-49.08
-68.92
-74.19
-60.13
-29.62
9.14
48.05
82.22
111.04
135.57
155.85
170.04
175.54
171.84
161.52
148.80
136.66
124.63
109.09
86.59
56.34
21.88
-10.54
-35.62
-51.27
-58.87
-61.38
-61.33
-59.15
-53.91
-44.02
-28.80
-9.18
13.01
35.60
56.47
73.44
84.01
85.89
77.52
59.77
36.10
12.05
-6.05
-13.29
-8.83
4.06
18.49
27.28
26.46
16.82
3.53
-7.32
-12.00
-10.79
-6.62
-3.02
-2.92
-8.13
-20.37
-41.50
-71.91
-108.20
-142.99
-166.78
-172.49
-159.39
-133.54
-105.19
-83.22
-70.51
-63.57
-55.51
-40.79
-19.20
4.50
23.58
33.06
32.54
25.55
17.61
13.05
13.26
16.16
18.29
17.20
13.61
11.49
15.64
28.22
46.35
63.19
71.32
66.75
51.49
31.72
14.17
1.91
-6.45
-14.92
-25.80
-37.39
-44.76
-43.58
-34.12
-22.40
-17.94
-28.08
-54.38
-91.63
-130.17
-161.08
-179.15
-184.01
-178.77
-167.68
-154.11
-141.03
-130.56
-124.75
-124.98
-130.75
-139.64
-147.59
-150.08
-144.10
-128.66
-104.76
-74.78
-42.23
-10.81
15.66
34.95
47.40
56.54
68.12
87.74
118.49
159.56
207.06
255.59
300.14
337.57
366.16
385.31
395.26
396.98
391.92
382.03
368.63
352.02
331.06
304.64
272.82
237.46
202.16
170.83
145.73
126.67
111.35
96.60
80.11
61.13
40.64
21.34
5.85
-4.17
-8.83
-10.04
-10.61
-12.59
-16.42
-20.94
-24.58
-26.68
-27.92
-30.15
-35.14
-43.41
-54.19
-66.60
-80.63
-97.31
-117.89
-141.29
-162.92
-176.02
-175.03
-158.43
-130.62
-100.87
-79.61
-74.68
-88.14
-115.91
-149.75
-180.52
-200.89
-207.02
-199.14
-181.00
-158.53
-138.21
-125.02
-120.51
-122.29
-124.98
-122.77
-112.11
-92.62
-66.76
-37.92
-9.10
17.71
41.02
59.16
69.94
72.50
68.75
62.98
60.38
63.85
71.18
75.76
69.25
45.67
4.36
-49.61
-107.85
-161.30
-202.33
-225.59
-229.22
-215.82
-192.74
-170.34
-158.48
-162.89
-182.12
-208.31
-230.38
-238.61
-228.42
-201.32
-163.04
-120.40
-78.68
-39.44
-2.68
33.00
69.25
106.93
145.56
183.37
218.12
248.18
273.00
292.77
307.43
316.23
318.13
312.65
300.57
284.31
267.30
252.54
241.56
234.33
229.44
225.05
219.58
212.41
204.14
195.93
188.70
182.56
176.82
170.00
160.46
147.31
129.59
107.33
81.27
52.51
22.04
-9.11
-40.41
-70.17
-97.47
-121.66
-142.07
-158.22
-169.86
-177.11
-180.10
-179.42
-175.81
-170.00
-162.49
-153.35
-142.55
-130.18
-118.63
-107.68
-97.28
-87.43
-78.46
-70.73
-64.45
-59.92
-57.50
-57.60
-60.29
-65.61
-73.36
-83.13
-94.11
-105.42
-116.49
-126.81
-135.96
-143.44
-148.78
-151.86
-153.44
-154.98
-157.91
-163.13
-169.92
-175.90
-177.53
-172.45
-160.62
-144.72
-128.63
-115.07
-104.74
-96.03
-87.48
-78.94
-72.22
-67.64
-63.61
-54.44
-32.49
8.40
69.49
145.43
225.61
297.80
351.56
380.24
382.11
359.19
316.70
262.64
205.97
154.92
115.28
88.88
73.48
64.59
57.53
49.08
38.64
27.76
19.80
19.00
28.37
48.02
73.33
95.88
105.49
94.86
62.84
16.80
-30.00
-64.10
-78.05
-73.41
-59.13
-46.23
-41.91
-46.80
-55.64
-62.09
-63.21
-60.07
-56.57
-56.38
-60.18
-64.94
-66.21
-60.32
-46.17
-25.73
-2.35
20.66
41.32
59.56
76.76
94.94
115.57
137.82
157.65
168.51
162.87
136.00
88.61
28.11
-33.97
-86.27
-121.57
-138.85
-141.83
-135.22
-121.25
-98.84
-66.47
-25.60
17.39
51.54
65.81
53.66
15.18
-42.58
-107.64
-166.53
-207.66
-224.19
-215.34
-186.19
-145.45
-101.91
-60.50
-21.70
16.80
56.84
96.60
130.46
151.40
154.51
139.35
110.20
74.67
41.29
18.05
10.30
19.41
41.45
67.06
84.28
83.43
61.67
25.04
-13.86
-42.01
-52.11
-45.07
-27.34
-6.36
13.72
32.98
52.70
72.20
86.93
91.21
82.18
63.01
41.86
28.34
28.57
42.16
62.99
82.06
91.26
86.59
69.02
44.18
20.41
5.94
5.67
19.36
41.01
61.02
70.31
63.48
40.63
6.33
-33.63
-74.92
-115.67
-155.50
-193.03
-223.78
-240.71
-236.82
-209.34
-162.74
-108.71
-61.94
-34.67
-31.78
-48.82
-75.19
-98.76
-110.51
-107.27
-89.70
-60.27
-21.87
22.05
65.29
98.74
113.05
102.71
69.95
25.06
-17.09
-42.76
-44.54
-23.66
10.88
46.25
70.22
74.10
55.36
18.46
-25.96
-64.12
-83.02
-75.14
-41.04
11.75
71.43
127.17
172.60
205.99
229.03
243.25
247.96
239.93
215.50
173.89
118.49
57.04
-0.75
-46.37
-74.89
-86.61
-86.07
-79.63
-72.60
-67.22
-62.59
-56.66
-47.92
-37.23
-27.89
-23.32
-24.88
-30.98
-37.00
-37.87
-31.02
-17.15
-0.18
15.07
25.81
32.04
35.51
37.52
37.74
34.53
26.54
15.24
4.96
0.51
4.41
14.54
25.49
30.96
27.81
17.59
5.50
-3.08
-5.46
-3.33
-0.96
-2.58
-9.76
-20.94
-32.97
-44.26
-56.64
-75.22
-105.45
-149.20
-201.10
-248.18
-274.62
-268.29
-226.57
-158.66
-82.29
-15.68
29.17
49.90
52.74
47.01
40.79
38.13
40.15
46.59
57.93
74.94
97.71
124.83
152.59
175.60
189.25
191.86
185.69
176.24
169.97
170.34
176.16
181.64
179.51
165.10
138.25
102.99
64.18
24.02
-18.34
-64.52
-113.46
-159.93
-196.46
-218.00
-225.17
-223.69
-220.06
-217.74
-215.22
-207.62
-190.56
-163.72
-131.49
-100.28
-75.60
-60.21
-53.94
-54.85
-61.04
-71.52
-85.39
-101.56
-118.60
-134.50
-146.44
-150.88
-144.25
-123.94
-89.45
-43.40
9.16
61.89
108.52
143.77
163.99
168.27
158.37
138.34
114.27
92.33
76.68
69.15
68.96
73.96
81.76
90.20
96.49
97.33
89.81
73.47
51.51
29.61
12.73
2.41
-4.40
-13.25
-27.45
-46.04
-64.51
-78.61
-87.87
-96.51
-109.83
-128.63
-146.68
-151.99
-133.05
-85.26
-14.01
66.96
142.11
200.10
236.87
255.60
263.26
266.95
271.22
277.74
285.44
291.08
290.36
278.56
252.26
210.88
157.18
97.82
40.78
-6.60
-39.61
-56.70
-59.21
-50.75
-36.34
-22.33
-14.92
-18.47
-33.92
-58.31
-86.07
-111.97
-133.12
-149.64
-163.55
-176.62
-188.61
-196.98
-198.17
-188.78
-168.07
-138.40
-104.31
-71.67
-45.42
-28.12
-18.69
-13.07
-6.06
6.83
27.41
54.09
82.50
106.46
119.37
115.31
90.57
45.24
-15.41
-81.72
-142.57
-188.62
-215.37
-223.96
-219.44
-206.79
-188.80
-165.55
-136.37
-103.08
-70.47
-44.12
-26.96
-16.18
-3.89
18.65
55.31
101.89
147.22
177.90
184.65
166.04
129.19
86.19
49.53
27.40
21.65
28.14
39.05
46.18
44.59
34.41
20.63
11.41
14.03
32.76
67.43
113.87
164.76
211.15
243.08
251.48
231.03
182.17
112.44
34.48
-37.94
-94.28
-129.62
-145.23
-147.02
-142.73
-139.91
-144.07
-157.56
-178.03
-199.11
-212.10
-209.88
-190.02
-155.49
-112.79
-68.84
-28.09
7.77
39.23
67.16
92.34
114.84
134.14
148.99
157.36
156.77
146.31
127.16
102.76
78.21
57.99
44.57
38.37
38.66
44.29
53.25
62.26
66.50
61.42
44.99
19.41
-9.90
-36.42
-55.22
-64.07
-63.09
-53.32
-36.42
-14.61
8.49
27.69
38.06
37.37
27.28
12.98
1.12
-4.13
-3.44
-0.64
0.48
-1.04
-2.08
2.33
15.13
34.28
53.06
62.29
54.71
27.92
-14.37
-63.38
-107.89
-137.90
-147.38
-135.89
-108.87
-74.51
-40.72
-12.60
8.64
24.39
36.43
45.65
52.69
58.77
66.00
75.42
85.74
92.46
90.00
75.18
49.96
20.70
-5.02
-21.55
-27.26
-24.86
-19.22
-16.09
-20.49
-35.64
-62.02
-96.45
-132.55
-163.53
-184.95
-196.54
-202.87
-210.31
-222.60
-238.22
-251.16
-253.14
-238.46
-206.57
-161.82
-110.99
-60.46
-14.16
26.13
59.00
82.63
94.40
93.20
82.17
68.41
61.25
68.41
91.94
126.36
160.89
183.94
187.88
172.21
143.52
112.68
90.50
84.18
95.46
120.78
152.68
182.50
202.70
208.41
198.90
176.89
147.32
114.97
82.80
49.95
12.96
-31.84
-85.40
-143.02
-194.68
-227.84
-232.29
-204.90
-152.42
-89.55
-33.77
2.05
14.65
10.51
0.94
-5.41
-8.04
-14.37
-34.70
-74.49
-129.46
-186.58
-229.92
-248.10
-239.06
-209.93
-172.88
-139.44
-115.78
-101.53
-90.96
-75.74
-48.62
-6.52
48.32
108.40
162.69
200.70
215.50
206.21
177.67
138.40
97.27
61.25
34.41
18.00
11.80
14.67
24.47
38.68
54.10
67.04
74.29
73.09
62.04
42.16
17.64
-4.34
-15.80
-11.53
7.94
35.57
61.08
76.54
80.51
78.10
76.89
82.02
92.74
103.37
107.37
101.32
85.94
64.05
38.26
9.65
-21.22
-52.46
-79.46
-97.12
-102.72
-97.38
-86.25
-76.26
-72.58
-76.36
-84.85
-93.42
-97.52
-94.55
-84.31
-68.11
-47.96
-25.61
-2.17
21.15
42.69
60.45
72.35
77.68
78.14
76.60
75.86
76.32
76.03
71.63
61.95
49.74
40.83
41.57
55.68
82.24
115.51
147.83
173.22
189.10
196.17
196.10
188.67
170.70
137.98
88.50
25.89
-40.36
-99.05
-142.64
-170.60
-189.48
-208.20
-232.09
-258.78
-279.39
-282.87
-262.28
-218.58
-159.78
-97.75
-44.86
-10.91
-2.00
-19.90
-60.77
-115.14
-169.38
-210.05
-228.53
-224.13
-203.29
-175.66
-149.54
-128.48
-111.39
-95.07
-76.93
-56.51
-34.12
-8.29
24.86
70.21
129.99
200.00
269.01
322.12
346.09
334.94
293.42
234.55
174.37
125.84
94.36
77.94
70.79
67.56
65.92
66.12
68.47
71.43
72.16
67.73
57.74
45.14
34.73
30.57
33.71
41.58
49.21
51.78
45.67
30.01
6.71
-20.78
-47.89
-71.40
-90.27
-105.66
-119.53
-133.75
-147.80
-159.74
-168.03
-172.45
-174.86
-177.74
-181.62
-183.31
-177.65
-159.62
-128.05
-86.95
-44.20
-8.40
14.55
23.61
22.13
16.46
12.80
14.64
21.97
32.33
43.19
54.57
69.31
91.40
122.45
158.78
191.86
211.40
211.02
191.63
161.96
134.16
117.38
112.91
112.92
104.19
74.93
21.56
-49.00
-121.04
-177.06
-204.71
-201.25
-172.78
-130.21
-83.59
-39.22
0.51
34.32
59.42
71.62
67.80
49.55
24.85
5.63
3.33
22.19
56.40
91.77
111.97
105.64
71.83
19.65
-36.58
-83.69
-115.22
-131.51
-136.90
-135.72
-130.56
-122.92
-114.71
-109.14
-109.37
-116.27
-126.51
-133.51
-130.20
-112.37
-81.21
-42.86
-5.68
22.62
37.87
41.15
37.68
34.71
38.28
50.03
65.98
78.12
78.52
63.56
37.12
8.81
-10.22
-12.66
1.40
25.32
49.19
65.40
71.23
69.37
64.87
62.41
64.49
72.02
84.67
101.15
118.02
129.47
127.38
104.27
57.18
-10.45
-88.16
-161.51
-216.39
-242.67
-237.04
-202.62
-147.84
-83.39
-20.21
32.95
70.77
91.40
97.09
92.89
85.81
83.03
89.30
105.36
127.27
147.57
158.34
154.38
134.45
101.09
58.98
13.66
-29.34
-64.01
-84.89
-88.66
-76.57
-55.40
-35.07
-24.31
-26.15
-36.46
-46.67
-48.56
-38.46
-18.92
3.69
24.15
41.34
57.78
76.29
95.77
110.25
111.68
95.64
65.48
32.22
8.78
3.50
15.05
33.37
45.16
41.08
19.94
-12.58
-49.05
-84.98
-119.56
-153.15
-182.51
-199.95
-196.69
-168.49
-120.83
-68.49
-30.01
-18.95
-37.56
-75.83
-116.16
-142.08
-145.24
-127.51
-97.56
-64.05
-30.53
5.68
49.17
100.86
153.69
194.39
209.20
191.44
145.10
84.12
25.72
-16.75
-37.69
-39.09
-26.82
-7.36
14.25
33.94
47.66
51.89
45.13
29.26
8.98
-9.98
-23.61
-31.35
-35.63
-39.88
-46.99
-58.26
-72.51
-86.99
-97.44
-98.27
-84.53
-54.22
-10.45
38.27
80.74
108.31
118.11
114.74
106.68
100.98
99.20
96.74
85.87
60.55
20.36
-30.24
-83.88
-133.96
-176.42
-209.23
-231.13
-240.85
-238.09
-224.04
-201.63
-174.42
-145.43
-116.34
-86.95
-56.04
-22.12
16.13
59.10
104.94
150.30
190.86
223.09
245.78
259.98
267.63
270.25
268.82
264.75
260.83
260.91
267.12
278.43
289.42
292.24
279.92
249.70
203.41
146.61
86.09
27.95
-23.32
-64.36
-92.99
-108.32
-110.70
-101.02
-80.67
-52.22
-20.77
5.89
19.02
12.32
-14.99
-57.70
-107.13
-155.26
-197.60
-233.51
-264.32
-290.20
-308.75
-315.50
-306.87
-282.37
-244.90
-199.08
-149.92
-101.44
-57.45
-22.14
0.51
8.72
4.20
-7.56
-19.00
-23.47
-17.28
-0.57
24.23
54.64
89.41
127.26
165.25
197.43
215.88
214.08
191.38
154.88
117.19
91.44
85.18
97.85
121.39
144.57
158.42
159.08
147.68
128.61
105.85
81.43
55.45
27.25
-4.23
-39.71
-79.68
-124.21
-171.80
-218.81
-259.35
-287.84
-300.91
-298.85
-285.14
-264.73
-243.27
-225.73
-215.82
-216.00
-226.38
-243.63
-261.62
-273.02
-273.02
-260.61
-239.20
-214.04
-189.32
-166.84
-146.61
-128.51
-112.38
-97.22
-80.52
-57.54
-23.94
21.24
74.33
128.99
179.76
225.77
271.06
320.26
373.55
423.52
456.80
460.81
430.41
371.38
298.54
227.86
169.45
124.61
88.11
53.57
17.70
-17.60
-48.21
-70.76
-84.10
-88.66
-83.85
-68.12
-40.03
-0.63
44.60
86.73
117.09
130.51
125.78
105.44
73.80
35.86
-1.76
-31.02
-43.63
-33.32
1.21
54.77
116.97
175.31
219.47
244.68
252.65
249.13
240.64
230.81
218.40
198.97
168.02
124.19
70.78
14.68
-36.99
-79.37
-110.74
-131.38
-141.47
-141.51
-133.59
-122.45
-115.85
-121.54
-142.79
-176.11
-212.32
-240.66
-253.30
-248.05
-228.28
-201.08
-174.28
-154.16
-144.41
-144.63
-150.42
-154.69
-149.90
-131.19
-98.22
-55.39
-9.86
31.36
63.67
86.12
100.52
109.90
117.81
127.54
141.35
159.29
178.21
191.94
193.55
178.11
145.52
101.63
56.50
20.37
-0.21
-5.15
-0.00
6.64
8.03
2.01
-9.01
-20.52
-29.85
-37.49
-45.87
-57.23
-70.58
-81.39
-84.34
-75.94
-57.30
-33.77
-12.36
1.88
8.34
11.28
16.89
29.18
47.22
64.92
74.82
72.55
59.17
40.20
22.75
11.41
6.66
5.45
4.31
0.89
-5.55
-15.56
-29.82
-48.30
-68.26
-83.65
-86.85
-73.27
-44.63
-8.84
22.85
41.69
44.32
33.05
13.64
-7.37
-24.34
-32.58
-28.55
-10.66
19.31
55.08
86.82
104.82
103.13
81.66
46.07
4.75
-34.30
-65.53
-85.80
-94.42
-93.03
-85.31
-76.94
-74.44
-82.66
-103.22
-133.98
-170.13
-205.98
-236.96
-260.24
-274.46
-278.88
-273.00
-256.32
-229.37
-195.05
-158.33
-125.38
-101.21
-87.22
-79.54
-69.51
-46.80
-4.22
57.37
128.42
193.08
235.67
246.89
228.16
190.37
149.57
121.13
114.30
130.47
163.99
205.58
245.44
276.32
294.53
299.96
295.21
283.51
267.24
246.25
218.43
181.71
136.38
85.97
35.70
-10.02
-50.07
-85.84
-118.91
-147.19
-164.06
-161.59
-135.70
-91.00
-40.24
0.10
18.16
11.66
-11.79
-39.33
-60.34
-71.07
-75.55
-81.76
-96.52
-120.86
-150.29
-176.54
-191.10
-187.99
-164.93
-123.84
-69.71
-10.18
45.62
88.66
112.34
114.87
100.45
78.78
61.44
58.18
72.07
98.52
127.05
145.90
146.96
128.37
94.99
56.22
22.69
2.50
-0.78
11.17
32.36
53.94
66.60
63.72
43.27
8.78
-31.34
-66.41
-87.52
-91.03
-79.72
-61.05
-44.13
-36.83
-42.66
-61.14
-88.06
-117.82
-145.15
-166.12
-178.69
-182.46
-178.90
-170.54
-159.99
-148.03
-133.04
-111.79
-81.23
-41.54
2.58
42.79
70.14
78.11
65.35
36.42
0.24
-33.08
-55.58
-64.13
-60.70
-50.09
-37.47
-25.67
-14.83
-4.55
4.63
9.36
4.70
-12.18
-38.15
-63.57
-75.60
-63.96
-26.90
27.92
87.24
139.06
178.35
208.12
235.26
265.28
298.06
327.44
345.15
345.45
328.17
299.06
267.17
240.98
226.08
223.76
229.84
235.63
229.96
203.48
152.73
81.72
0.81
-78.43
-148.67
-209.45
-264.95
-318.38
-367.93
-405.78
-422.00
-410.83
-374.00
-320.85
-264.12
-214.15
-176.13
-150.00
-132.75
-121.34
-113.26
-106.49
-98.74
-87.89
-72.23
-51.44
-27.44
-3.08
18.57
35.39
46.33
51.63
52.64
51.79
52.40
58.01
72.26
97.61
134.37
179.91
229.59
277.17
316.54
342.34
350.60
339.34
308.83
262.09
204.23
141.55
79.41
21.08
-32.09
-80.31
-123.14
-158.91
-184.94
-198.20
-197.13
-182.80
-159.25
-132.05
-107.20
-88.82
-79.17
-77.91
-83.28
-92.61
-103.47
-114.40
-123.84
-130.99
-134.54
-134.38
-131.85
-129.20
-128.07
-128.18
-126.47
-119.43
-105.37
-86.10
-66.10
-49.50
-37.19
-25.77
-10.14
13.35
44.01
76.17
102.48
117.45
120.01
113.92
104.78
96.94
92.33
91.56
95.29
105.85
126.11
156.49
193.25
228.39
253.26
262.78
257.90
244.82
230.89
219.71
209.40
193.49
165.57
122.95
69.46
13.55
-35.35
-70.16
-88.28
-92.10
-86.71
-77.69
-68.80
-60.83
-53.28
-46.57
-44.13
-52.81
-79.71
-127.42
-190.19
-254.72
-305.32
-330.39
-327.07
-301.50
-264.87
-227.57
-195.65
-170.96
-153.91
-145.28
-146.08
-154.89
-165.52
-168.24
-153.71
-118.17
-65.37
-5.32
50.37
92.90
118.46
127.83
124.85
114.12
100.12
86.67
76.03
68.45
62.36
55.31
46.10
36.66
31.21
34.47
48.33
70.13
94.09
114.74
129.79
141.33
153.68
169.79
188.26
203.72
208.83
199.11
175.98
145.84
117.49
96.81
83.40
70.39
48.13
10.04
-42.73
-100.97
-150.90
-180.31
-184.07
-166.05
-136.41
-105.82
-81.19
-63.94
-52.23
-44.51
-41.27
-44.42
-54.67
-69.50
-83.90
-93.18
-96.13
-95.77
-98.02
-106.89
-121.33
-134.73
-137.31
-121.78
-87.28
-40.36
8.71
51.28
84.02
110.17
136.18
167.14
203.83
241.84
274.02
293.92
298.35
287.93
265.64
234.80
198.15
157.04
111.48
60.86
4.80
-55.12
-114.80
-167.79
-207.42
-229.13
-232.15
-218.74
-192.36
-156.03
-112.34
-64.33
-16.95
23.08
49.59
59.85
55.68
43.01
28.93
18.15
12.48
11.65
14.85
21.73
31.58
40.70
41.73
25.92
-12.88
-73.84
-147.48
-219.84
-278.23
-316.06
-334.55
-339.33
-335.80
-326.25
-309.64
-284.30
-250.79
-211.67
-169.99
-126.98
-81.21
-31.14
22.76
76.63
124.90
162.97
189.92
208.41
222.32
234.69
245.33
251.35
248.48
233.41
205.19
166.53
122.80
79.72
42.46
13.51
-6.82
-19.57
-25.82
-25.32
-16.69
0.69
25.04
51.40
73.01
84.68
85.99
82.53
83.93
98.76
130.20
173.53
218.07
251.97
267.38
263.52
245.20
219.10
189.90
159.50
127.94
95.89
65.23
38.87
19.69
9.59
9.13
16.98
29.25
39.28
38.70
20.64
-16.46
-66.92
-119.68
-163.39
-191.55
-204.80
-209.44
-212.98
-219.94
-230.03
-239.04
-241.62
-234.09
-215.68
-188.58
-157.44
-128.21
-107.10
-99.38
-106.87
-126.74
-151.33
-169.73
-171.90
-152.82
-114.98
-67.58
-22.34
12.08
34.71
52.36
74.92
108.60
151.61
194.30
224.83
235.08
225.45
205.04
187.20
183.51
198.82
229.26
264.61
292.59
302.84
289.87
253.81
199.61
135.44
69.75
10.06
-38.68
-75.05
-100.88
-119.73
-135.02
-148.26
-158.05
-161.23
-155.13
-139.92
-119.53
-99.67
-84.80
-76.50
-74.27
-76.81
-84.71
-100.32
-125.34
-158.33
-192.61
-217.22
-221.22
-198.74
-151.70
-89.51
-25.65
27.87
65.10
87.39
100.74
112.12
125.47
140.43
153.00
158.27
152.69
135.21
107.33
71.86
32.50
-6.08
-38.66
-61.51
-74.17
-80.11
-85.52
-95.53
-111.46
-130.66
-147.84
-159.01
-162.61
-159.43
-151.32
-140.33
-127.97
-115.38
-103.17
-90.05
-72.07
-43.12
2.13
64.80
138.61
210.87
267.17
297.25
299.30
280.45
253.69
232.20
224.58
231.56
245.95
255.69
248.77
218.35
165.83
100.90
37.90
-10.09
-35.76
-40.31
-31.63
-20.35
-14.96
-18.96
-30.18
-43.77
-56.12
-67.52
-83.10
-109.56
-151.01
-204.32
-259.13
-301.32
-319.52
-310.54
-280.90
-243.31
-209.44
-184.52
-166.39
-148.82
-127.00
-100.21
-70.83
-41.07
-10.88
21.35
55.87
89.78
117.67
135.59
144.01
147.84
153.38
163.80
177.02
186.87
187.51
176.92
156.90
130.96
100.80
66.08
25.64
-19.58
-64.09
-99.12
-115.88
-109.62
-83.03
-46.20
-13.35
1.84
-8.15
-41.56
-88.63
-136.00
-171.73
-189.93
-191.46
-181.36
-165.69
-147.93
-128.92
-108.08
-84.81
-59.34
-32.58
-5.78
19.69
42.72
63.33
83.30
106.07
134.94
170.47
208.35
240.03
257.01
254.70
235.48
207.41
178.88
154.00
129.79
99.54
57.96
6.46
-46.05
-87.28
-108.38
-108.98
-98.15
-90.00
-96.45
-121.18
-157.58
-192.03
-210.16
-203.08
-170.76
-120.73
-64.46
-12.48
28.23
55.65
71.45
78.95
82.44
85.13
89.11
94.79
100.06
101.30
93.83
73.48
38.72
-7.29
-56.88
-99.46
-124.91
-127.76
-108.48
-72.47
-27.73
18.33
60.14
94.63
120.63
138.21
147.71
148.95
140.02
117.51
77.60
19.00
-55.04
-135.54
-209.77
-264.89
-291.56
-286.40
-252.10
-196.25
-130.48
-68.36
-23.33
-4.56
-12.85
-38.65
-64.99
-74.35
-56.39
-13.05
42.78
93.68
125.76
133.86
122.29
101.45
82.23
71.69
71.47
79.03
90.66
104.56
120.87
141.16
165.73
191.88
213.49
222.99
213.85
183.44
134.07
71.88
4.55
-61.44
-121.91
-174.00
-215.15
-242.04
-251.06
-239.94
-208.98
-162.13
-107.08
-53.54
-11.10
13.88
20.15
12.01
-2.90
-16.57
-23.02
-20.32
-10.76
0.61
7.64
4.84
-10.17
-35.92
-66.65
-94.05
-110.72
-112.56
-100.86
-81.08
-59.55
-39.86
-21.32
-0.73
24.04
51.76
79.05
103.03
124.89
150.31
186.18
235.74
293.97
347.82
379.98
376.13
330.82
250.86
153.06
58.50
-14.51
-56.22
-67.38
-57.96
-41.98
-32.00
-34.56
-49.15
-69.97
-89.53
-102.57
-107.40
-105.20
-97.85
-86.33
-70.17
-48.16
-20.22
11.79
43.53
69.87
86.58
91.81
86.97
76.51
66.63
63.65
71.93
92.05
121.21
154.04
183.92
204.53
211.31
201.99
175.86
133.97
79.34
17.39
-44.96
-100.62
-144.79
-176.37
-198.31
-215.90
-233.68
-254.24
-276.73
-297.80
-313.08
-318.36
-311.58
-293.26
-266.56
-235.97
-206.02
-180.11
-159.82
-144.25
-130.21
-113.22
-88.68
-53.81
-8.79
42.59
93.78
138.10
170.86
190.62
198.70
197.42
187.95
171.24
148.34
121.29
92.48
62.75
30.69
-6.50
-50.03
-97.35
-141.99
-176.70
-196.51
-200.64
-191.49
-172.64
-146.03
-112.20
-71.62
-25.62
22.93
70.66
115.50
156.99
195.21
229.15
255.88
271.00
270.24
251.09
214.35
164.32
107.58
51.03
-0.69
-46.94
-91.11
-137.77
-189.61
-244.30
-294.75
-332.16
-349.66
-345.50
-322.64
-287.17
-245.11
-200.87
-156.21
-110.81
-62.78
-8.73
55.06
129.96
212.51
294.23
363.65
410.11
428.51
421.24
395.92
361.28
323.42
283.40
238.98
187.57
129.32
68.78
13.27
-30.26
-58.52
-74.17
-84.27
-96.21
-113.02
-131.01
-141.96
-138.69
-120.85
-96.82
-79.57
-79.15
-96.23
-121.04
-138.00
-133.80
-104.23
-55.71
-2.07
42.17
66.90
69.62
54.95
31.70
9.80
-2.10
0.87
19.06
48.70
82.85
112.99
131.11
132.05
114.37
80.75
37.33
-8.29
-48.73
-79.31
-98.47
-106.94
-106.72
-100.03
-88.36
-73.47
-58.26
-46.66
-41.92
-44.58
-51.04
-55.19
-51.26
-37.43
-17.85
-0.61
6.41
-0.12
-16.55
-34.10
-42.90
-36.41
-14.57
16.05
45.16
62.92
63.31
45.59
13.54
-26.70
-69.40
-110.66
-147.37
-175.11
-187.65
-178.79
-145.71
-92.10
-28.88
29.18
69.48
85.69
79.68
58.79
32.50
9.20
-5.87
-10.85
-6.55
4.26
17.82
30.71
41.74
51.97
63.49
77.21
90.73
98.82
96.75
84.23
66.49
52.99
52.51
68.90
98.58
132.27
159.21
171.33
165.60
145.04
116.51
88.02
66.03
52.86
46.76
42.22
32.90
14.86
-11.12
-40.20
-66.45
-86.72
-102.63
-119.08
-139.79
-163.81
-184.38
-191.99
-179.26
-145.46
-97.61
-47.51
-7.29
14.86
16.55
1.06
-25.10
-53.99
-77.41
-87.60
-79.14
-50.44
-6.53
41.62
80.01
96.65
87.47
58.34
22.82
-4.43
-14.72
-8.26
7.58
23.55
34.22
40.12
44.89
50.76
56.21
56.05
45.45
23.74
-4.50
-31.30
-49.50
-55.69
-51.04
-38.97
-23.08
-5.66
11.82
27.37
37.30
37.91
27.28
7.23
-16.51
-37.09
-49.24
-52.15
-49.11
-45.47
-46.09
-53.62
-67.79
-86.47
-106.39
-123.29
-132.27
-128.67
-109.65
-75.88
-32.55
12.56
52.06
82.52
105.39
125.72
148.53
176.07
207.23
238.68
267.07
289.96
304.43
306.34
289.17
246.27
175.33
81.68
-20.79
-113.44
-179.07
-208.88
-204.91
-178.18
-143.35
-112.15
-89.56
-73.22
-56.31
-32.47
-0.38
34.96
63.66
76.06
67.29
40.79
7.27
-19.30
-27.20
-12.23
21.55
63.91
102.97
130.30
143.19
145.13
142.71
142.35
147.37
156.67
165.39
166.24
152.42
119.93
68.93
4.07
-67.15
-136.88
-199.24
-250.94
-291.00
-319.11
-333.82
-332.46
-312.71
-274.52
-221.48
-160.33
-99.01
-44.14
1.43
37.76
66.89
90.31
107.66
117.16
116.02
101.95
74.82
38.19
-1.11
-34.78
-55.65
-60.93
-53.77
-41.79
-33.11
-32.03
-36.03
-37.69
-28.97
-6.66
25.36
56.80
75.74
75.07
54.97
22.67
-11.16
-37.55
-52.29
-56.66
-55.45
-53.86
-54.42
-56.03
-55.26
-48.27
-33.46
-12.86
8.14
22.48
24.42
11.87
-12.29
-40.67
-64.30
-75.78
-71.89
-54.72
-29.46
-1.47
26.38
53.85
81.50
108.06
128.36
135.07
121.91
87.98
40.14
-9.26
-47.14
-65.15
-61.91
-43.19
-18.49
3.05
15.74
18.41
13.60
5.69
-1.11
-3.95
-2.09
3.01
8.22
9.59
3.46
-11.66
-34.26
-59.88
-83.31
-100.86
-112.17
-119.16
-124.10
-126.65
-122.93
-108.01
-79.41
-41.18
-4.17
18.70
19.41
-0.63
-29.85
-52.39
-55.85
-37.15
-3.30
32.77
58.94
68.93
63.69
49.73
35.38
26.74
25.11
27.48
29.09
26.98
21.71
18.34
23.03
38.64
61.62
82.80
91.87
84.16
64.30
44.28
37.06
48.86
74.62
100.71
111.97
99.87
66.42
23.15
-14.87
-35.43
-33.74
-13.07
18.07
50.13
76.30
93.20
100.72
100.57
94.62
84.12
69.53
50.48
26.13
-3.65
-37.12
-69.88
-95.73
-109.32
-108.68
-96.56
-79.42
-63.78
-52.40
-43.16
-30.42
-8.87
22.16
57.83
89.68
110.17
115.93
109.78
99.13
92.43
95.56
109.23
128.92
147.12
156.87
155.06
142.84
123.92
101.40
74.80
40.87
-3.08
-55.95
-111.42
-159.33
-190.24
-199.03
-187.08
-161.89
-133.70
-111.11
-99.22
-98.46
-105.77
-116.73
-126.40
-130.41
-125.44
-109.77
-84.10
-52.04
-19.14
8.68
26.45
32.18
27.17
15.12
0.49
-13.01
-22.95
-27.48
-24.48
-11.36
14.22
52.18
98.09
143.01
175.47
185.95
171.89
138.67
97.11
57.59
23.73
-8.25
-45.12
-90.17
-138.12
-176.30
-191.30
-176.46
-135.35
-79.42
-21.35
30.89
74.78
110.52
136.77
149.31
144.48
123.57
93.95
66.23
48.15
40.08
35.52
26.14
7.42
-18.89
-46.98
-71.45
-90.08
-104.57
-117.39
-129.14
-137.93
-141.91
-141.68
-140.33
-141.13
-144.43
-145.46
-136.61
-111.92
-71.04
-20.10
30.78
71.73
97.29
108.40
110.79
111.45
115.04
121.05
123.67
115.63
93.16
58.93
21.93
-6.25
-16.91
-8.66
12.76
37.97
58.25
68.86
68.93
60.15
44.45
22.97
-3.35
-33.03
-63.52
-91.31
-111.62
-118.57
-106.63
-73.42
-21.96
38.35
94.46
134.96
155.52
159.86
156.82
154.57
156.00
157.76
153.89
140.34
116.75
85.45
49.36
9.93
-32.41
-75.65
-114.91
-143.45
-155.85
-151.01
-132.89
-108.17
-82.89
-61.15
-45.38
-37.96
-42.09
-60.42
-91.77
-129.74
-163.25
-181.23
-176.88
-151.91
-115.70
-81.01
-58.07
-50.12
-52.28
-55.56
-52.14
-38.83
-17.74
6.05
27.71
44.42
55.67
61.68
62.87
59.63
53.41
47.23
44.51
47.04
53.16
57.88
55.53
43.06
21.86
-3.66
-28.45
-49.69
-66.68
-79.28
-86.02
-85.13
-76.07
-61.84
-48.69
-43.40
-48.73
-61.11
-71.82
-71.85
-57.37
-31.91
-3.74
19.15
33.43
40.51
44.97
51.37
62.42
79.31
102.30
130.09
159.30
184.25
198.08
195.87
176.61
143.71
103.75
63.33
26.78
-3.69
-27.09
-42.22
-46.74
-39.19
-20.52
4.15
26.59
38.44
35.19
18.40
-3.59
-19.44
-20.09
-2.58
28.98
65.69
98.36
121.06
130.84
126.14
105.78
68.78
17.01
-43.30
-102.88
-152.54
-187.78
-210.18
-225.64
-240.03
-255.78
-269.41
-273.77
-261.44
-228.19
-174.85
-106.58
-31.67
41.55
106.31
158.51
197.03
222.66
237.31
242.80
239.94
228.72
209.04
180.55
143.45
98.73
48.76
-2.13
-47.92
-82.09
-100.70
-104.12
-96.54
-84.65
-74.10
-67.61
-64.07
-60.20
-52.48
-38.67
-18.57
7.21
37.28
69.41
99.76
123.09
134.52
130.82
112.37
82.21
44.76
4.03
-36.82
-75.20
-108.08
-132.68
-147.90
-155.16
-157.81
-158.85
-157.81
-149.20
-126.08
-84.77
-28.79
30.73
80.41
111.05
121.98
121.28
120.05
125.80
137.54
146.84
142.73
118.11
73.91
18.13
-37.66
-83.69
-115.50
-134.77
-146.04
-152.67
-153.88
-145.36
-122.26
-83.30
-32.58
22.51
74.87
120.72
159.88
193.24
219.20
232.98
228.83
203.51
160.10
106.95
54.48
10.45
-22.94
-47.60
-66.21
-79.63
-85.76
-81.56
-65.87
-41.60
-15.38
5.26
15.14
13.78
5.33
-3.44
-5.95
1.48
18.87
42.57
66.48
84.90
93.33
89.45
73.83
49.08
18.82
-13.56
-45.36
-74.88
-100.94
-122.77
-138.68
-146.33
-143.29
-128.41
-102.92
-71.30
-39.38
-11.74
10.31
29.18
48.84
70.72
91.82
105.18
103.43
82.93
45.71
-1.41
-50.21
-95.18
-134.75
-169.59
-199.77
-223.05
-235.16
-232.41
-214.03
-183.13
-145.92
-109.19
-78.65
-58.12
-49.13
-51.45
-62.29
-75.69
-83.00
-75.63
-49.02
-5.75
44.33
87.85
113.32
115.77
97.96
68.51
37.26
12.12
-2.88
-6.58
0.93
19.14
47.67
84.86
127.23
169.10
204.12
227.57
237.70
236.39
227.73
216.32
204.64
192.81
180.01
165.73
150.87
136.40
121.67
103.72
79.17
46.52
8.83
-26.01
-48.93
-54.10
-42.53
-20.89
1.67
17.52
23.75
21.71
14.93
6.17
-3.59
-15.50
-30.48
-48.09
-66.01
-80.89
-90.96
-97.11
-102.83
-111.72
-125.13
-140.80
-154.43
-162.60
-165.20
-165.96
-170.02
-180.64
-196.21
-211.24
-219.37
-216.58
-202.96
-181.75
-156.99
-131.67
-107.08
-83.33
-59.11
-31.78
2.41
46.83
102.87
167.81
234.57
292.69
331.22
342.54
324.45
281.73
224.97
166.11
114.23
72.05
35.76
-1.21
-43.31
-88.94
-129.77
-155.17
-157.53
-136.61
-100.20
-59.93
-26.67
-7.13
-2.67
-11.27
-29.45
-53.33
-79.44
-104.34
-124.75
-137.93
-142.98
-141.23
-136.44
-134.18
-139.60
-154.63
-176.68
-198.27
-209.07
-200.42
-169.01
-119.84
-65.16
-19.14
8.46
16.55
12.85
9.07
15.03
34.02
61.91
90.82
114.21
130.13
141.84
154.47
172.10
196.60
227.53
263.94
304.80
347.85
388.02
417.27
426.82
410.74
368.58
306.74
236.47
170.14
117.74
84.25
69.03
66.25
66.55
59.79
38.29
0.01
-49.74
-99.65
-136.46
-150.28
-138.86
-108.18
-69.70
-35.72
-14.85
-10.11
-19.48
-37.58
-58.19
-76.17
-88.20
-94.58
-98.47
-105.16
-120.26
-146.24
-181.45
-220.44
-255.60
-280.58
-292.06
-289.66
-273.84
-245.42
-205.37
-155.77
-101.28
-48.90
-5.90
22.08
33.48
31.02
20.21
7.45
-1.68
-4.00
0.89
11.03
22.89
33.64
42.66
51.06
60.96
72.28
82.04
84.48
73.91
48.50
12.25
-25.86
-55.51
-69.24
-65.29
-47.61
-22.82
3.19
27.97
52.42
78.58
106.91
135.32
159.64
176.18
183.73
184.33
181.28
177.25
172.75
166.58
156.82
141.95
121.06
93.19
57.47
13.70
-36.29
-87.21
-131.39
-160.61
-170.08
-160.99
-139.73
-115.33
-95.78
-84.11
-78.13
-72.91
-64.43
-52.39
-40.83
-35.46
-40.15
-54.08
-71.40
-83.93
-85.17
-73.05
-50.86
-25.13
-2.07
15.45
28.71
42.18
60.74
86.20
116.41
145.76
167.85
178.01
174.09
156.53
126.97
86.67
37.49
-17.24
-72.51
-122.29
-161.26
-185.92
-195.83
-192.16
-177.16
-152.93
-121.49
-86.00
-50.76
-20.87
-0.05
10.33
12.30
9.89
6.84
5.07
3.91
2.05
-0.54
-1.33
3.94
19.13
44.64
77.04
109.34
134.22
147.50
148.94
142.53
133.48
126.28
122.46
120.77
118.84
114.39
106.91
96.88
85.02
70.26
49.30
18.43
-23.69
-72.72
-119.71
-154.04
-168.92
-165.30
-151.06
-136.93
-130.11
-131.63
-136.42
-137.24
-128.80
-111.07
-88.42
-67.88
-55.15
-52.27
-56.86
-62.27
-59.76
-41.74
-5.63
44.47
98.77
145.30
174.76
183.64
174.74
154.22
128.66
102.64
77.99
55.14
33.53
12.85
-6.31
-22.06
-31.90
-34.13
-28.74
-19.06
-10.50
-7.93
-11.84
-17.32
-15.35
2.24
37.65
84.94
131.67
163.60
170.88
151.46
110.94
59.97
9.56
-31.95
-60.52
-75.56
-78.77
-73.33
-62.86
-52.32
-47.41
-53.36
-73.22
-105.52
-144.91
-183.34
-213.43
-230.98
-235.31
-228.63
-214.49
-196.35
-176.71
-157.24
-137.78
-115.25
-84.29
-39.20
22.95
98.92
179.17
250.45
300.97
326.23
330.39
323.48
315.56
311.68
310.52
307.07
296.70
277.83
252.27
222.74
190.58
155.25
115.23
70.43
22.74
-23.91
-64.73
-95.90
-116.03
-125.89
-128.02
-126.12
-123.34
-120.77
-116.17
-105.16
-84.05
-53.96
-22.30
-1.09
-1.52
-29.08
-81.06
-147.64
-215.57
-272.62
-310.21
-324.59
-316.68
-290.77
-253.03
-210.16
-167.38
-128.42
-95.28
-68.61
-48.46
-34.46
-25.90
-22.02
-21.58
-22.93
-23.52
-20.66
-11.96
3.37
23.82
45.45
63.18
72.98
72.97
63.46
46.67
25.51
3.54
-14.53
-23.32
-18.41
1.92
34.71
73.08
108.88
136.37
154.91
168.80
184.73
207.86
237.90
268.06
287.20
284.60
254.76
200.73
132.42
62.53
0.75
-49.18
-88.50
-119.26
-141.35
-152.01
-148.60
-132.12
-107.78
-82.64
-61.77
-46.08
-32.91
-19.49
-5.77
4.52
6.41
-2.16
-18.14
-33.94
-40.52
-31.94
-8.13
25.24
58.68
82.52
89.69
77.79
49.73
13.00
-22.87
-49.73
-63.86
-65.93
-59.45
-47.52
-31.64
-11.45
11.80
32.83
42.76
32.59
-0.72
-51.10
-104.33
-144.44
-160.63
-152.68
-130.05
-106.87
-95.34
-101.28
-123.19
-154.24
-185.60
-208.82
-217.99
-211.06
-190.10
-160.53
-130.22
-107.13
-96.61
-100.29
-116.49
-140.81
-166.90
-186.72
-191.75
-174.18
-129.70
-59.16
31.01
129.31
223.21
302.85
363.64
405.82
432.52
446.62
449.62
441.38
422.06
392.84
356.34
315.88
274.09
233.00
193.98
157.94
125.38
96.59
71.40
49.41
30.09
13.03
-1.77
-14.13
-23.90
-31.29
-37.00
-42.09
-47.54
-53.67
-60.02
-65.38
-68.35
-68.30
-65.62
-61.61
-58.07
-56.41
-57.11
-60.11
-64.86
-70.14
-73.54
-71.44
-60.21
-38.62
-9.86
18.94
38.91
44.07
34.22
15.16
-4.71
-18.64
-24.15
-22.78
-17.67
-11.58
-5.46
0.96
8.44
17.60
29.14
43.78
60.90
78.48
92.35
98.54
94.75
81.54
61.94
39.63
17.07
-5.37
-27.42
-48.88
-68.20
-83.01
-91.47
-93.09
-89.23
-82.47
-75.33
-69.37
-65.08
-61.81
-58.58
-54.64
-49.95
-45.18
-41.43
-39.81
-40.92
-44.82
-50.92
-58.20
-65.52
-71.90
-76.66
-79.64
-81.28
-82.45
-84.30
-87.72
-93.02
-99.79
-106.99
-113.20
-117.33
-119.13
-119.09
-118.16
-117.00
-115.56
-112.68
-106.47
-94.93
-76.25
-49.49
-14.58
27.43
73.86
119.86
158.84
183.14
188.39
175.18
149.11
118.91
92.82
75.46
66.78
63.66
62.05
59.78
56.83
54.29
52.83
51.87
49.95
45.80
39.33
31.66
24.71
20.15
18.47
18.89
19.85
19.74
17.64
13.66
8.79
4.43
1.72
0.96
1.64
2.77
3.32
2.69
0.93
-1.41
-3.53
-4.80
-5.03
-4.48
-3.66
-3.08
-3.04
-3.53
-4.31
-5.02
-5.37
-5.29
-4.87
-4.32
-3.83
-3.50
-3.36
-3.34
-3.38
-3.37
-3.33
-3.24
-3.14
-3.05
-2.95
-2.85
-2.77
-2.69
-2.63
-2.61
-2.62
-2.65
-2.67
-2.67
-2.65
-2.57
-2.51
-2.45
-2.43
-2.43
-2.46
-2.51
-2.55
-2.60
-2.65
-2.71
-2.77
-2.83
-2.86
-2.87
-2.81
-2.71
-2.62
-2.60
-2.72
-3.00
-3.45
-3.98
-4.50
-4.90
-5.14
-5.23
-5.29
-5.49
-5.92
-6.62
-7.49
-8.36
-9.05
-9.50
-9.78
-10.11
-10.72
-11.71
-12.96
-14.26
-15.31
-15.95
-16.41
-17.02
-18.14
-19.87
-21.92
-23.74
-24.97
-25.80
-26.89
-28.87
-31.68
-34.13
-34.16
-29.86
-20.47
-7.02
7.94
21.29
30.39
33.96
31.83
24.97
15.12
4.89
-2.31
-2.77
6.43
25.50
50.64
74.28
87.31
82.48
57.68
17.47
-27.91
-66.07
-86.87
-86.00
-65.96
-34.56
-1.48
25.63
43.12
51.77
54.81
55.80
56.72
58.15
59.93
61.73
62.72
61.04
54.00
39.49
18.16
-5.56
-24.39
-31.65
-24.68
-6.31
16.37
35.82
47.57
51.75
51.22
49.84
50.20
52.32
55.51
56.95
54.13
44.69
28.65
7.46
-16.09
-39.02
-59.30
-75.66
-87.09
-91.73
-87.26
-72.29
-48.57
-21.37
1.86
14.71
14.52
3.84
-11.34
-24.90
-33.18
-36.07
-35.89
-35.39
-36.18
-38.09
-39.93
-40.38
-38.86
-35.75
-32.47
-30.48
-30.58
-32.60
-35.29
-36.77
-35.53
-31.02
-23.96
-15.98
-8.74
-2.85
2.11
7.74
15.83
27.46
42.42
59.55
77.32
93.86
107.80
116.98
118.91
111.36
94.01
69.17
41.45
16.19
-3.24
-16.59
-26.75
-37.31
-49.72
-61.71
-68.23
-64.36
-48.68
-24.79
0.28
18.66
26.20
23.86
16.64
10.71
9.82
13.80
19.32
22.40
20.94
15.76
10.00
7.16
9.17
15.71
24.86
34.14
41.73
46.37
46.86
41.77
29.73
10.58
-13.79
-39.53
-62.12
-78.28
-87.63
-92.53
-96.38
-101.04
-105.07
-104.13
-93.39
-70.55
-37.82
-1.51
30.77
53.22
64.29
66.61
65.27
64.83
67.62
73.54
80.88
87.32
90.52
88.12
78.17
59.87
34.55
6.00
-20.76
-41.39
-54.03
-59.74
-61.43
-61.77
-61.90
-61.23
-58.57
-53.74
-47.97
-43.54
-42.37
-44.86
-49.73
-54.97
-59.03
-61.43
-62.35
-61.49
-57.34
-47.41
-29.93
-5.12
24.05
52.72
76.29
92.46
101.93
107.26
110.37
110.81
105.68
91.67
67.63
36.07
2.57
-26.71
-47.74
-60.01
-65.89
-68.83
-71.18
-73.12
-73.55
-71.58
-67.66
-63.97
-63.47
-68.49
-79.34
-93.46
-105.88
-110.35
-102.15
-80.10
-47.77
-12.38
17.91
37.34
44.66
42.87
37.03
31.38
27.57
24.73
21.03
15.42
8.43
1.71
-3.25
-6.03
-7.47
-9.02
-12.10
-17.21
-23.82
-30.93
-37.53
-43.12
-47.81
-52.00
-56.06
-60.11
-63.73
-66.28
-67.20
-66.16
-63.11
-58.05
-50.78
-40.92
-28.23
-12.94
3.99
21.10
36.79
50.05
60.72
69.74
78.31
87.26
96.96
107.45
119.00
132.03
146.45
159.21
166.96
165.00
149.82
121.58
84.98
47.64
16.76
-4.13
-16.28
-23.53
-29.38
-33.93
-33.95
-25.22
-6.27
20.36
48.89
73.42
90.86
102.01
109.33
114.53
115.93
108.69
87.97
52.41
5.95
-42.75
-83.80
-110.04
-120.00
-117.33
-108.36
-98.67
-90.20
-81.66
-69.68
-52.10
-29.87
-7.14
10.39
18.33
15.89
6.19
-5.72
-15.04
-18.94
-16.93
-10.17
0.05
12.84
29.39
50.01
73.27
96.84
118.10
135.41
148.28
156.14
158.13
154.52
145.19
129.22
107.56
82.70
57.40
33.79
11.30
-10.94
-28.98
-37.17
-31.10
-7.84
30.41
76.42
116.07
131.67
109.18
47.09
-47.53
-163.38
-285.49
-399.49
-493.48
-547.79
-550.28
-524.62
-490.56
-453.82
-422.67
-401.28
-389.23
-381.07
-367.86
-342.73
-302.53
-245.44
-176.33
-106.90
-46.97
-0.91
31.77
59.25
91.01
131.23
177.91
221.05
247.45
258.69
259.75
256.57
252.98
247.51
235.19
214.20
186.59
152.46
120.13
98.88
94.51
107.75
133.79
165.88
200.15
235.67
274.01
311.26
343.10
365.26
375.30
371.49
351.42
311.65
259.56
192.01
110.85
24.13
-56.75
-120.75
-161.11
-177.42
-171.75
-151.22
-123.63
-92.50
-57.38
-15.40
36.57
94.88
152.19
208.29
247.00
255.84
232.94
187.34
134.36
88.53
57.89
43.28
40.29
41.37
42.29
43.54
47.05
53.96
63.36
71.55
75.29
73.12
64.26
50.51
35.10
19.84
5.35
-8.77
-23.41
-39.18
-56.60
-77.77
-105.52
-136.52
-169.92
-204.79
-239.69
-272.65
-301.56
-325.11
-344.22
-361.36
-379.16
-401.09
-429.08
-462.23
-496.18
-523.28
-533.93
-519.80
-476.64
-405.18
-313.48
-214.48
-122.11
-47.29
4.96
35.84
56.27
75.57
100.45
129.79
156.10
171.83
175.06
169.66
164.97
167.54
178.96
197.34
217.92
235.80
248.89
256.46
259.76
266.63
282.99
306.17
331.21
354.92
371.84
374.93
362.01
335.66
300.62
260.31
216.66
169.21
115.58
53.14
-18.69
-97.56
-172.37
-230.55
-264.79
-275.39
-269.79
-257.09
-243.28
-229.93
-215.06
-196.08
-172.24
-152.53
-137.42
-126.78
-120.30
-116.51
-113.50
-110.06
-107.34
-109.45
-122.23
-149.55
-186.38
-225.28
-256.41
-270.90
-263.61
-234.81
-188.96
-132.92
-72.75
-14.32
36.63
75.57
99.73
110.74
112.34
111.45
114.89
126.26
143.03
158.15
164.14
155.76
134.21
103.07
68.45
37.15
15.59
7.00
10.15
21.02
31.49
34.13
25.92
9.89
-7.93
-21.10
-26.22
-21.72
-6.58
20.38
60.10
111.41
169.93
222.33
254.40
257.27
232.15
189.23
142.92
105.55
82.98
74.00
72.51
72.43
69.96
63.82
53.21
38.05
16.38
-12.24
-45.38
-77.84
-102.50
-113.32
-105.99
-84.66
-58.84
-38.53
-29.49
-31.65
-40.75
-50.96
-58.29
-61.92
-63.87
-66.12
-69.11
-71.42
-71.21
-67.86
-62.25
-56.61
-53.52
-54.77
-59.96
-66.77
-71.78
-72.15
-67.16
-58.25
-48.44
-40.82
-37.03
-36.25
-35.57
-31.53
-21.09
-3.65
19.36
44.98
69.69
89.54
100.68
100.17
87.41
65.31
39.80
18.09
5.11
1.52
3.27
4.39
0.15
-9.98
-21.91
-29.52
-27.61
-15.13
5.11
27.53
46.27
57.05
58.34
51.63
39.76
28.07
20.48
18.18
19.51
21.87
23.84
26.06
30.50
38.30
48.47
57.40
60.61
54.87
39.63
17.15
-7.89
-29.27
-42.15
-43.62
-34.33
-18.52
-2.70
6.93
6.54
-3.52
-19.31
-35.85
-49.74
-60.81
-70.80
-81.31
-91.90
-99.90
-101.74
-94.89
-79.19
-55.80
-27.38
2.73
30.81
53.09
66.11
68.14
59.25
43.57
26.34
10.76
-2.57
-14.78
-25.99
-33.52
-32.22
-17.39
12.14
52.38
94.79
129.89
150.54
153.71
140.43
114.55
81.72
47.06
17.54
-2.32
-11.10
-10.42
-3.87
4.70
12.87
19.95
26.11
31.48
35.11
35.80
32.97
27.29
20.32
13.83
9.17
6.52
4.78
2.07
-3.40
-12.57
-25.23
-40.22
-55.51
-69.00
-79.13
-85.13
-87.40
-86.76
-84.14
-79.99
-74.35
-66.43
-55.28
-40.78
-23.63
-5.72
10.42
22.38
28.33
26.90
17.71
1.26
-20.69
-44.45
-64.73
-75.98
-74.64
-59.35
-35.84
-12.31
3.88
9.17
4.72
-5.10
-15.36
-22.99
-27.53
-30.37
-32.56
-34.15
-34.29
-32.05
-27.31
-21.06
-14.92
-10.84
-10.36
-13.63
-19.96
-28.01
-36.06
-42.54
-46.23
-46.53
-43.45
-37.71
-29.43
-18.63
-5.18
11.28
30.98
53.68
78.58
104.65
129.98
154.20
176.16
193.29
201.68
197.23
177.91
145.58
106.15
67.72
37.62
19.35
12.10
12.09
15.14
18.69
22.19
25.98
30.13
33.76
35.36
33.85
29.47
23.50
17.69
13.26
9.89
6.26
0.81
-7.57
-18.69
-31.09
-42.69
-51.44
-56.42
-58.16
-58.15
-58.06
-59.03
-61.09
-63.32
-64.92
-65.19
-64.59
-64.38
-66.06
-70.84
-79.49
-92.33
-107.89
-125.15
-140.91
-150.24
-148.31
-132.38
-103.64
-67.43
-31.51
-2.97
14.10
19.97
17.83
11.77
4.78
-1.70
-7.38
-12.29
-16.17
-18.80
-19.86
-19.64
-18.51
-16.35
-12.64
-5.66
6.54
25.65
51.94
83.37
114.89
139.55
150.05
143.36
121.73
92.27
64.00
43.95
34.46
33.00
34.71
35.48
34.33
32.99
33.98
38.15
43.94
47.95
47.11
40.47
29.24
15.90
2.35
-11.37
-26.34
-43.15
-60.34
-74.53
-81.58
-79.03
-67.25
-50.18
-32.44
-16.91
-4.08
6.55
14.00
14.81
4.26
-19.72
-53.63
-88.07
-111.45
-115.80
-101.06
-75.26
-49.96
-35.98
-36.99
-49.32
-65.38
-78.33
-85.27
-87.20
-86.68
-85.22
-81.81
-73.91
-59.21
-37.53
-11.10
16.33
40.95
59.64
72.23
80.20
85.77
90.73
95.67
99.89
101.97
100.77
96.05
88.77
80.53
73.03
67.40
63.80
62.01
60.55
58.41
55.18
51.22
47.21
43.89
41.65
40.47
39.94
39.45
38.63
37.39
35.95
34.61
33.62
33.01
32.66
32.28
31.41
29.74
27.05
23.61
19.12
13.44
6.44
-1.89
-11.53
-22.35
-33.90
-45.45
-56.45
-65.41
-71.13
-73.48
-72.51
-68.69
-62.79
-55.56
-47.48
-38.74
-29.16
-18.95
-8.65
0.87
8.54
13.47
15.41
14.97
13.55
13.03
14.58
18.40
23.72
29.07
33.11
35.08
35.29
34.93
35.74
38.82
44.85
54.22
66.73
80.97
93.85
100.76
95.03
75.11
43.28
5.82
-28.98
-54.22
-66.97
-68.86
-64.35
-57.99
-51.98
-46.56
-40.86
-34.45
-28.04
-23.09
-20.69
-20.76
-21.97
-22.34
-20.46
-16.10
-10.17
-4.21
0.33
2.76
3.31
3.04
3.37
5.21
8.67
13.14
17.51
20.75
22.23
21.88
20.14
17.59
14.61
11.32
7.46
2.69
-3.28
-10.39
-18.27
-26.20
-33.41
-39.20
-43.22
-45.42
-45.82
-44.56
-41.88
-38.08
-33.45
-28.34
-22.92
-17.50
-12.34
-7.54
-3.23
0.47
3.50
6.05
8.29
10.79
13.93
18.02
23.39
30.03
37.50
45.12
52.47
58.98
64.95
69.99
74.04
77.44
80.55
83.08
84.50
84.79
83.83
82.86
81.24
78.76
76.33
75.26
75.96
78.00
80.66
81.80
79.93
70.53
52.09
28.17
5.68
-9.75
-17.60
-14.89
-7.65
-5.00
-19.89
-58.81
-118.40
-188.41
-258.39
-322.15
-378.31
-429.84
-447.84
-418.89
-352.40
-272.31
-198.64
-140.62
-99.92
-74.08
-58.35
-44.67
-29.35
-9.81
14.50
40.35
60.56
67.69
59.12
38.35
13.55
-10.97
-32.66
-49.33
-58.08
-55.72
-40.10
-11.51
25.95
65.16
95.85
111.37
111.36
100.39
84.72
69.36
56.95
49.27
47.86
52.39
60.95
69.51
72.45
65.40
47.39
22.30
-1.56
-15.13
-12.78
5.93
36.65
72.15
105.35
130.49
143.02
139.83
120.04
86.63
47.52
14.33
-1.77
6.11
36.65
80.09
121.74
147.63
150.01
129.74
94.10
51.85
10.12
-27.93
-62.11
-92.39
-116.73
-130.89
-130.74
-110.72
-75.99
-37.88
-8.34
5.57
4.32
-5.61
-15.95
-20.82
-19.22
-14.80
-11.75
-12.35
-16.08
-20.56
-23.14
-22.36
-18.46
-13.20
-9.30
-8.36
-10.42
-14.22
-17.98
-20.24
-20.47
-19.10
-17.29
-16.63
-17.81
-20.57
-24.00
-27.14
-29.33
-30.52
-31.15
-31.90
-33.49
-36.09
-39.30
-42.46
-44.91
-46.20
-46.15
-44.72
-42.00
-38.02
-32.95
-26.25
-17.70
-7.38
4.10
15.87
26.85
35.93
42.25
45.34
45.44
43.07
38.96
33.56
27.33
20.54
13.30
5.78
-1.69
-8.04
-12.30
-13.76
-12.71
-9.75
-5.87
-2.30
0.09
1.12
2.16
4.93
11.04
20.55
33.06
47.45
62.38
76.71
90.10
103.86
119.54
138.54
160.80
186.81
217.04
251.03
286.33
313.00
323.16
311.48
282.59
239.77
189.23
138.67
94.42
59.62
33.87
15.42
2.13
-7.97
-17.46
-27.81
-40.06
-55.07
-73.05
-93.51
-114.55
-133.94
-150.53
-166.32
-183.41
-203.32
-226.29
-250.81
-274.15
-292.48
-301.91
-291.16
-254.57
-192.70
-113.28
-28.19
51.78
120.07
171.65
210.19
238.88
257.44
264.62
259.49
241.80
214.53
182.02
149.33
121.13
99.14
81.45
64.84
46.53
24.15
-2.27
-30.36
-56.44
-77.01
-91.61
-103.63
-118.97
-143.91
-185.37
-246.12
-322.43
-403.67
-474.78
-521.61
-535.20
-513.82
-462.98
-397.63
-335.99
-294.60
-283.66
-304.53
-350.38
-408.51
-464.20
-489.54
-468.96
-404.48
-314.97
-224.41
-149.04
-93.25
-53.87
-29.53
-15.90
-13.92
-24.53
-45.59
-71.27
-94.48
-110.31
-117.44
-118.12
-115.44
-114.05
-116.07
-120.12
-121.93
-116.70
-101.61
-77.08
-46.13
-12.37
19.32
45.71
65.99
81.63
95.06
108.13
121.35
134.02
145.28
153.49
157.64
157.73
154.79
150.35
145.76
141.77
138.48
135.70
132.65
128.54
122.87
115.67
107.61
99.80
93.64
90.45
91.12
95.68
103.29
112.40
121.36
129.02
135.15
140.42
145.96
152.68
160.61
168.79
175.70
180.00
181.41
181.11
181.50
185.55
195.86
213.91
239.37
269.82
300.88
327.26
344.27
349.57
344.14
332.03
318.81
309.42
306.33
308.67
312.68
313.24
305.69
287.73
260.34
227.61
195.20
167.77
146.39
127.31
102.94
65.44
11.15
-56.47
-127.10
-187.12
-224.71
-233.73
-214.94
-174.30
-120.23
-61.36
-5.61
39.83
68.82
77.30
64.93
36.09
-0.68
-35.01
-58.12
-65.72
-59.18
-44.54
-30.03
-22.97
-27.13
-41.79
-62.37
-82.52
-96.67
-102.08
-99.47
-92.07
-84.03
-78.84
-78.46
-83.20
-91.98
-102.66
-112.31
-117.61
-115.35
-103.16
-80.33
-48.53
-11.84
23.90
52.61
69.97
75.11
71.22
64.50
61.59
66.84
80.52
99.24
118.26
134.11
146.02
155.27
162.83
167.22
163.91
146.84
111.36
56.87
-11.90
-85.77
-153.27
-203.63
-229.19
-226.85
-198.71
-151.59
-95.41
-40.79
3.59
32.95
46.85
48.29
42.08
33.16
25.37
20.83
19.47
19.25
16.64
7.71
-10.26
-37.21
-69.71
-101.79
-127.10
-141.46
-144.30
-138.18
-126.97
-113.90
-100.45
-86.93
-73.46
-60.84
-50.33
-42.65
-36.93
-30.70
-20.85
-5.44
14.99
37.33
57.16
70.77
76.65
75.97
71.80
67.90
67.77
74.35
90.20
116.84
153.68
196.64
237.58
265.42
269.03
240.97
180.82
96.35
1.75
-86.23
-152.74
-188.80
-193.15
-171.87
-136.03
-98.15
-68.59
-53.25
-52.82
-63.89
-80.90
-97.87
-109.57
-112.27
-104.44
-87.07
-63.66
-39.45
-20.11
-10.57
-13.67
-29.37
-54.63
-83.89
-110.55
-128.76
-135.27
-130.62
-118.61
-104.28
-91.45
-80.87
-70.15
-55.36
-33.55
-4.40
29.31
62.64
90.03
106.86
110.75
102.66
86.83
69.71
57.78
54.98
61.29
73.34
87.12
101.37
119.70
149.05
195.35
258.45
329.32
391.90
428.24
425.33
380.14
301.20
205.22
111.73
37.59
-6.80
-19.16
-5.45
21.75
46.90
57.41
47.36
20.28
-12.15
-35.03
-36.74
-13.93
27.20
73.80
113.38
137.70
145.16
139.61
126.92
111.47
94.76
76.12
45.77
-0.15
-58.53
-119.24
-169.76
-202.40
-218.32
-225.02
-230.63
-239.24
-248.17
-251.81
-246.01
-230.88
-210.13
-188.10
-166.93
-146.15
-123.53
-96.07
-62.51
-23.62
18.55
61.42
102.58
139.96
171.89
196.81
213.98
222.80
222.22
209.96
182.35
135.18
64.47
-26.74
-128.76
-226.73
-304.21
-347.65
-350.76
-316.79
-258.25
-193.42
-140.96
-114.72
-119.20
-148.46
-188.76
-224.17
-242.34
-238.37
-215.25
-181.27
-146.90
-121.41
-110.84
-117.44
-140.13
-174.59
-213.74
-248.82
-271.28
-275.53
-260.91
-231.65
-194.94
-157.95
-125.04
-97.02
-71.79
-45.86
-16.15
19.11
59.97
104.86
150.34
191.34
222.12
238.05
237.99
225.96
210.82
203.67
213.54
243.29
288.15
337.87
381.62
412.83
431.14
440.70
445.67
446.08
436.88
410.06
359.06
282.30
184.13
73.68
-37.33
-136.53
-212.66
-257.72
-270.14
-256.87
-232.96
-216.72
-222.01
-251.75
-296.27
-338.16
-360.56
-354.68
-322.71
-275.28
-226.04
-186.49
-163.47
-159.19
-172.15
-197.53
-227.53
-252.09
-261.36
-249.29
-216.16
-169.20
-119.95
-79.77
-55.73
-48.53
-52.96
-60.33
-61.69
-50.26
-22.79
20.58
77.15
142.43
210.55
274.50
327.12
362.62
378.74
377.95
366.72
353.49
345.85
348.65
363.56
389.66
424.12
462.34
497.86
522.96
530.58
516.95
483.51
436.54
384.49
334.19
288.32
245.22
200.98
152.32
98.28
39.89
-21.23
-84.25
-148.69
-212.94
-272.76
-321.80
-354.20
-368.28
-368.26
-362.44
-358.38
-358.16
-357.05
-346.84
-321.78
-283.44
-240.95
-206.46
-188.99
-190.59
-206.78
-229.99
-253.42
-272.44
-283.59
-283.31
-267.88
-235.24
-187.07
-129.03
-68.92
-14.09
30.26
61.11
76.39
74.19
53.19
14.43
-36.99
-92.02
-140.00
-171.93
-183.35
-174.82
-150.28
-114.12
-69.05
-16.32
42.32
102.32
156.19
196.10
217.52
221.75
215.02
204.56
194.47
184.11
170.71
153.84
138.49
133.89
148.66
184.81
235.05
285.09
319.75
329.41
313.02
276.76
229.88
180.77
134.51
92.96
56.14
23.20
-7.25
-37.28
-69.27
-104.91
-143.82
-182.81
-216.59
-239.16
-245.92
-235.33
-209.38
-173.24
-134.31
-101.12
-81.47
-80.35
-97.59
-127.27
-159.27
-183.46
-193.99
-192.29
-185.63
-183.05
-190.98
-210.23
-236.64
-263.90
-287.33
-305.52
-320.29
-333.11
-342.52
-344.11
-332.14
-302.71
-255.78
-195.27
-126.95
-57.87
6.18
61.31
103.80
130.48
139.53
132.18
113.33
91.54
73.65
63.92
64.05
72.27
85.20
98.64
108.04
108.51
96.84
69.38
25.96
-18.27
-45.01
-39.25
2.20
69.07
134.54
188.79
229.00
255.42
269.33
272.10
262.86
240.92
207.34
165.14
119.68
73.73
28.25
-16.69
-62.52
-111.09
-163.21
-217.50
-269.61
-311.50
-335.80
-336.93
-312.65
-266.17
-205.38
-139.90
-77.74
-22.66
26.99
74.59
122.97
172.33
219.26
258.36
285.15
298.42
300.80
297.18
290.75
281.09
264.51
236.52
195.79
146.95
99.97
65.77
50.98
54.22
66.75
76.85
75.21
58.35
28.42
-9.70
-51.56
-94.87
-138.39
-179.38
-211.92
-227.71
-219.52
-185.43
-131.12
-68.96
-13.57
23.71
38.53
33.59
15.54
-9.53
-38.80
-71.76
-107.09
-140.13
-163.09
-168.75
-155.02
-127.31
-96.76
-75.07
-68.76
-76.79
-92.39
-108.06
-120.24
-130.74
-144.14
-163.27
-185.95
-204.74
-210.53
-197.02
-163.96
-117.16
-65.58
-17.10
24.46
60.08
93.99
130.96
173.90
222.51
273.16
320.05
356.87
378.78
384.00
374.70
356.50
336.81
322.66
318.42
324.47
337.24
350.62
357.88
353.90
336.29
305.26
262.84
211.57
153.66
90.81
24.92
-41.02
-102.49
-153.75
-189.31
-205.87
-204.00
-188.79
-168.97
-154.63
-154.26
-171.77
-204.66
-244.12
-277.56
-292.77
-282.43
-246.86
-193.81
-135.37
-83.38
-45.46
-23.40
-14.30
-13.66
-18.12
-26.36
-37.58
-49.03
-54.92
-48.33
-25.37
11.23
52.10
85.06
101.36
100.68
91.66
87.55
99.25
130.07
174.99
224.41
269.27
304.48
328.66
341.46
341.25
324.85
289.33
234.33
163.86
85.96
10.73
-52.52
-98.13
-125.74
-139.84
-147.99
-158.16
-176.33
-205.09
-243.09
-285.57
-326.04
-357.82
-375.19
-374.78
-356.54
-323.95
-283.19
-241.24
-203.81
-174.18
-153.10
-139.61
-131.56
-125.71
-117.68
-103.09
-79.26
-47.07
-11.29
21.30
45.07
58.15
63.11
65.32
69.60
77.73
88.01
97.15
102.61
103.87
102.23
99.85
98.87
101.36
109.60
125.78
151.04
184.13
221.14
256.27
283.45
297.60
295.48
275.97
240.71
194.60
145.68
103.57
76.50
68.10
76.06
93.16
110.56
121.16
121.55
111.65
93.19
68.65
40.72
12.66
-12.15
-31.26
-44.21
-52.21
-56.46
-56.47
-49.94
-34.81
-12.41
10.64
23.71
16.37
-15.86
-68.16
-126.78
-173.88
-194.66
-183.47
-146.33
-97.83
-54.90
-30.18
-28.16
-45.87
-76.77
-115.57
-160.34
-211.22
-266.81
-320.83
-362.63
-381.05
-370.13
-332.89
-280.88
-229.39
-190.51
-167.98
-156.12
-143.61
-120.33
-83.51
-40.03
-3.17
14.96
10.55
-9.03
-28.11
-30.33
-6.23
43.02
107.59
174.50
232.72
275.94
302.15
312.19
308.81
296.85
283.21
275.09
277.05
287.99
300.63
303.74
286.97
245.28
181.52
106.01
33.48
-21.02
-46.57
-39.53
-5.00
44.26
91.41
120.78
122.27
93.27
38.59
-31.62
-104.71
-168.64
-214.54
-238.89
-244.66
-240.44
-237.63
-246.59
-273.28
-317.21
-371.76
-426.13
-468.53
-489.46
-484.45
-455.49
-410.35
-359.67
-312.95
-274.87
-243.91
-214.05
-178.63
-133.84
-80.06
-20.53
41.04
102.21
161.82
218.81
270.72
313.89
344.84
361.94
366.77
364.18
360.98
363.72
376.25
397.82
422.86
442.72
448.65
434.85
399.98
346.80
280.72
208.39
137.20
74.87
28.11
0.79
-8.02
-4.42
2.32
3.09
-8.53
-35.32
-77.10
-131.92
-195.66
-260.38
-313.92
-342.63
-336.97
-297.52
-237.08
-176.79
-137.52
-130.78
-154.04
-192.54
-226.39
-238.77
-221.65
-176.72
-112.57
-40.67
27.62
82.25
115.11
121.48
102.05
64.71
23.27
-7.11
-15.91
-1.59
28.24
61.38
87.74
104.12
114.93
128.54
152.17
188.09
232.93
279.88
321.67
352.77
369.86
371.33
356.70
326.50
282.70
229.06
170.69
112.86
59.62
12.06
-31.99
-76.17
-122.92
-170.76
-214.18
-246.32
-262.66
-263.61
-254.04
-240.47
-227.76
-217.42
-208.06
-197.29
-183.28
-165.55
-144.80
-122.99
-103.70
-92.47
-95.91
-119.05
-161.72
-216.23
-268.46
-302.36
-305.82
-275.03
-215.47
-139.44
-61.43
6.67
58.60
94.46
119.08
139.18
160.72
186.85
217.41
249.18
276.75
294.22
297.55
287.06
268.85
253.14
250.39
266.35
298.95
338.71
372.87
391.56
392.58
382.28
371.76
370.39
380.51
395.93
405.10
396.66
364.24
308.28
234.63
150.89
63.12
-25.61
-114.21
-201.58
-284.69
-358.90
-419.69
-464.07
-492.24
-507.74
-516.61
-524.91
-535.87
-548.35
-557.87
-559.65
-551.09
-533.39
-510.83
-487.90
-465.74
-440.47
-404.83
-352.58
-282.48
-198.53
-107.77
-17.29
68.09
146.52
218.04
282.69
339.23
378.95
392.41
375.73
334.52
280.83
226.18
176.97
134.22
95.89
60.40
26.61
-2.85
-23.31
-30.55
-22.30
1.23
37.46
81.83
127.38
164.01
181.62
174.28
143.95
100.69
57.82
25.47
6.80
-1.67
-6.07
-10.58
-15.76
-19.54
-19.36
-14.30
-5.52
4.69
13.97
20.88
25.15
27.38
26.83
22.19
12.70
-0.39
-13.35
-20.98
-19.24
-6.99
11.91
30.15
40.68
40.24
30.48
16.26
2.85
-6.87
-12.65
-16.11
-19.46
-24.79
-34.35
-50.53
-75.26
-107.93
-145.37
-182.18
-212.64
-232.86
-241.84
-240.84
-231.44
-213.82
-185.95
-146.10
-95.11
-37.55
19.26
68.03
104.06
126.70
138.49
144.32
148.50
153.77
161.15
170.31
180.27
190.16
199.77
205.23
205.29
199.56
187.60
168.08
138.95
98.89
49.07
-5.92
-59.30
-104.04
-136.77
-158.64
-173.65
-185.54
-195.09
-199.59
-194.97
-179.17
-153.89
-126.14
-106.10
-102.47
-118.57
-150.86
-190.16
-225.19
-246.83
-250.11
-235.19
-205.39
-164.48
-116.02
-63.85
-12.71
32.12
65.97
86.47
92.40
82.69
56.52
14.19
-40.89
-99.95
-149.29
-176.57
-170.54
-126.91
-52.77
39.20
138.08
236.64
330.03
413.35
480.30
525.61
546.56
545.13
528.30
505.13
481.99
460.02
435.48
402.23
355.32
291.60
210.51
115.21
12.98
-85.43
-167.81
-223.53
-246.77
-237.47
-202.55
-154.08
-105.70
-68.91
-51.03
-53.89
-73.56
-105.95
-140.79
-166.62
-177.51
-175.62
-167.60
-159.42
-153.35
-148.57
-143.42
-138.45
-135.88
-137.47
-142.17
-144.70
-138.41
-118.99
-87.44
-51.49
-21.74
-7.66
-13.55
-36.87
-67.96
-94.78
-107.56
-101.92
-79.34
-45.37
-8.20
22.95
39.85
40.00
27.61
12.92
8.51
24.23
63.25
120.48
184.92
237.70
263.24
254.44
215.32
157.00
90.80
24.69
-36.65
-87.21
-125.70
-149.51
-156.94
-148.66
-128.29
-101.07
-71.27
-41.81
-12.95
16.37
49.02
86.73
128.53
170.04
204.46
225.25
228.99
217.27
195.97
173.69
157.13
148.04
142.36
132.42
111.18
76.00
30.30
-17.90
-58.75
-84.61
-91.71
-80.71
-55.86
-23.68
8.42
32.86
42.98
34.28
5.39
-40.24
-95.04
-149.39
-194.59
-225.23
-240.79
-244.73
-239.37
-227.95
-213.06
-196.50
-178.65
-158.07
-131.06
-96.15
-50.02
7.43
71.24
133.20
184.08
216.88
225.77
210.46
175.13
126.75
72.19
16.16
-34.45
-72.54
-93.17
-95.53
-82.55
-60.15
-34.44
-10.25
10.15
27.26
42.47
56.91
69.38
77.21
77.16
66.79
45.05
12.22
-29.53
-75.50
-119.34
-154.07
-173.16
-172.78
-153.56
-120.60
-81.84
-44.66
-13.73
9.61
26.08
36.70
41.75
40.63
33.28
22.27
13.06
12.47
25.40
51.45
84.55
114.59
130.00
122.59
90.96
42.12
-9.87
-48.30
-60.37
-40.82
6.47
69.33
132.44
181.24
204.85
200.07
171.68
128.09
78.08
32.50
0.21
-13.56
-9.18
10.03
38.54
74.72
114.07
149.53
173.26
178.73
164.00
128.72
74.77
6.86
-67.24
-140.53
-206.21
-259.39
-299.61
-328.88
-354.36
-383.04
-416.87
-439.43
-434.23
-390.65
-310.59
-222.76
-143.07
-80.43
-38.33
-13.18
-2.39
-7.63
-31.74
-72.56
-123.17
-169.05
-196.79
-199.00
-184.09
-158.33
-128.53
-99.66
-73.62
-47.52
-17.00
20.31
64.81
116.05
171.70
226.18
273.77
311.29
338.35
356.84
367.14
366.62
350.88
316.71
263.56
196.04
123.58
57.27
6.46
-24.40
-36.00
-31.63
-14.61
11.93
44.90
80.53
114.31
141.86
159.72
165.63
158.44
137.95
105.16
63.62
19.40
-19.98
-48.31
-63.06
-66.22
-62.41
-56.20
-50.14
-44.12
-36.83
-27.39
-16.41
-5.68
2.97
8.71
11.63
12.29
11.12
7.78
1.32
-9.20
-24.01
-41.96
-61.26
-79.73
-95.59
-107.78
-116.16
-121.47
-125.13
-128.93
-134.23
-140.88
-146.45
-146.50
-136.30
-113.42
-79.56
-40.61
-4.58
21.73
35.10
36.80
31.26
23.52
17.15
13.48
12.32
12.99
14.96
18.29
22.97
28.57
34.43
39.97
44.94
50.05
56.81
66.60
79.69
93.99
105.09
107.51
97.29
74.26
42.76
11.37
-11.66
-21.67
-19.15
-8.60
4.29
15.63
24.45
32.35
41.37
52.07
62.95
71.24
74.23
70.55
60.74
46.82
31.43
16.66
3.02
-10.12
-24.30
-40.58
-58.89
-77.80
-95.60
-111.10
-123.81
-133.01
-136.98
-133.25
-120.46
-99.87
-75.83
-55.55
-45.41
-47.43
-57.80
-68.58
-71.95
-63.23
-44.21
-20.25
2.85
21.85
36.09
46.47
52.86
53.57
46.75
31.84
10.77
-12.15
-31.72
-43.66
-46.31
-40.49
-29.90
-18.58
-9.74
-4.64
-2.64
-2.32
-2.41
-2.90
-4.96
-10.20
-19.47
-32.87
-49.51
-67.48
-83.70
-94.05
-93.59
-78.96
-50.02
-10.24
33.29
72.38
100.87
116.62
121.56
119.81
116.03
111.10
104.83
96.57
86.28
75.15
64.89
56.57
50.11
44.33
37.72
29.58
20.30
11.21
3.98
-0.17
-1.13
0.26
2.45
3.90
4.01
3.06
1.96
1.68
2.74
4.81
7.02
8.39
8.51
7.91
7.71
9.27
13.39
19.93
27.64
35.02
40.64
44.01
45.64
46.58
48.13
51.49
57.61
66.68
77.86
89.08
97.05
98.19
89.40
69.51
40.27
6.09
-27.06
-53.37
-69.10
-72.48
-64.78
-50.47
-34.96
-22.58
-15.61
-14.99
-21.41
-35.61
-57.57
-85.25
-113.83
-136.57
-148.16
-147.94
-140.93
-135.50
-138.78
-152.62
-172.21
-188.26
-191.27
-175.78
-142.53
-97.46
-49.32
-7.13
21.76
32.59
24.29
0.12
-32.65
-64.40
-86.00
-91.99
-82.04
-60.79
-35.39
-12.82
2.02
6.94
2.00
-11.28
-30.34
-51.74
-71.08
-83.92
-87.02
-79.69
-64.17
-44.57
-25.15
-8.46
5.10
16.66
27.35
36.76
42.31
40.40
28.87
8.87
-14.25
-33.00
-41.03
-36.18
-21.76
-5.47
3.83
-0.49
-20.30
-52.04
-88.08
-119.53
-139.29
-144.12
-134.88
-115.48
-90.82
-65.22
-41.47
-20.85
-4.00
8.60
16.49
19.79
19.88
19.41
21.60
29.05
42.71
61.82
84.44
108.15
130.63
149.82
163.98
171.98
173.78
170.29
162.87
152.37
138.56
120.59
98.54
74.75
53.59
39.44
34.03
35.16
37.70
36.51
28.91
15.36
-2.07
-21.81
-43.43
-66.47
-88.39
-104.13
-107.95
-97.07
-73.80
-44.92
-18.15
1.66
14.09
21.89
28.02
33.73
38.81
43.39
49.50
60.77
80.46
109.13
143.94
179.84
211.82
236.57
252.79
260.14
258.41
247.56
228.48
203.59
176.52
150.87
128.88
110.94
96.05
82.84
70.45
58.60
47.20
36.18
25.56
15.80
7.91
2.75
0.31
-0.58
-1.55
-3.37
-5.02
-3.94
2.42
14.98
32.33
51.26
68.24
80.57
86.85
86.68
80.34
68.41
52.38
34.81
18.99
7.60
1.12
-2.56
-7.07
-15.12
-26.92
-39.98
-50.93
-57.77
-61.12
-63.65
-67.92
-74.38
-80.55
-83.18
-80.39
-73.38
-65.66
-60.85
-60.64
-64.08
-68.82
-72.49
-74.76
-77.16
-81.33
-86.94
-91.26
-90.79
-83.51
-70.52
-53.97
-37.17
-22.52
-9.85
3.86
22.90
50.12
85.07
124.23
164.90
203.86
237.56
262.43
275.87
277.32
268.43
253.07
236.72
228.01
232.22
248.62
270.68
289.20
296.26
287.41
261.83
202.55
107.06
-11.72
-130.78
-229.58
-298.44
-336.56
-348.02
-339.55
-318.85
-291.55
-264.22
-243.68
-234.49
-236.55
-243.67
-245.69
-232.98
-200.76
-150.42
-92.54
-44.07
-21.06
-31.80
-71.91
-126.65
-178.79
-210.98
-212.01
-181.62
-129.47
-67.79
-12.74
23.21
37.07
34.95
26.44
18.45
14.05
8.61
-2.86
-23.19
-51.08
-82.56
-112.92
-138.00
-154.37
-160.26
-155.49
-140.01
-114.18
-78.04
-33.50
11.88
47.72
65.55
62.38
40.69
7.07
-31.07
-64.83
-90.02
-104.12
-106.01
-96.20
-77.48
-54.60
-32.78
-18.17
-14.23
-20.88
-33.68
-45.33
-48.54
-39.17
-18.19
9.12
35.43
54.94
65.43
69.39
72.59
81.43
100.37
130.35
168.51
208.83
243.66
265.29
268.07
249.91
213.13
164.34
113.39
71.17
46.86
45.57
66.47
102.67
142.52
172.78
182.77
168.21
133.03
87.81
45.04
13.55
-4.72
-13.89
-19.94
-26.06
-30.65
-28.99
-17.47
3.13
27.27
47.80
60.20
65.31
68.09
73.78
83.96
95.28
101.97
99.97
89.99
77.33
68.63
67.63
72.63
77.41
74.63
59.96
34.33
3.06
-27.20
-51.30
-67.10
-75.06
-76.85
-74.36
-69.65
-64.78
-61.52
-60.44
-60.50
-59.67
-56.53
-51.88
-48.80
-50.87
-59.59
-72.60
-84.55
-90.03
-86.98
-77.98
-68.68
-64.15
-65.72
-70.39
-73.38
-71.79
-66.87
-63.51
-67.04
-79.50
-98.26
-117.60
-132.18
-140.14
-143.50
-145.60
-148.10
-149.32
-145.46
-133.93
-115.71
-95.41
-78.86
-69.98
-68.82
-72.35
-76.82
-80.21
-82.72
-85.64
-89.48
-92.91
-93.57
-89.87
-82.47
-73.96
-67.31
-64.14
-63.91
-64.54
-64.02
-61.93
-59.82
-60.38
-65.81
-76.04
-88.43
-98.52
-102.12
-97.58
-86.78
-74.30
-65.08
-61.65
-62.55
-62.77
-56.45
-40.13
-15.05
13.04
36.50
49.21
49.19
39.12
24.88
12.84
7.41
9.63
17.44
27.12
35.37
40.95
45.08
50.46
59.32
71.80
85.29
95.45
98.15
91.55
77.03
58.59
40.90
27.40
19.47
17.06
19.92
28.35
42.55
61.36
81.50
98.55
109.10
112.74
111.93
109.87
107.45
101.68
87.08
59.33
18.81
-28.46
-73.67
-109.85
-135.36
-154.03
-172.04
-193.50
-217.74
-239.76
-252.84
-251.67
-234.91
-205.59
-170.04
-135.54
-107.54
-87.74
-74.00
-61.87
-46.99
-27.20
-3.16
22.73
47.71
69.86
88.41
102.36
109.74
108.05
95.96
74.47
47.03
17.95
-9.35
-32.10
-48.68
-57.60
-57.19
-46.00
-24.20
5.70
39.20
71.63
102.10
131.81
162.84
196.40
232.28
269.12
305.38
339.64
370.93
401.96
435.02
470.81
507.79
542.61
571.28
590.51
598.84
597.68
595.60
601.11
618.47
644.46
669.29
681.17
671.49
638.37
560.53
433.26
266.95
84.69
-88.15
-234.50
-348.38
-431.19
-487.01
-520.63
-532.93
-526.40
-505.88
-478.12
-449.71
-424.82
-404.45
-387.59
-372.72
-355.68
-334.22
-308.66
-281.56
-256.18
-234.65
-217.32
-203.27
-191.42
-179.01
-164.41
-147.62
-129.99
-113.36
-98.94
-86.88
-76.60
-67.55
-58.30
-48.09
-37.06
-26.11
-16.53
-9.33
-5.16
-3.91
-5.46
-9.03
-13.79
-19.01
-24.05
-28.40
-31.51
-33.03
-31.84
-28.37
-23.07
-16.58
-9.59
-2.76
3.38
8.53
12.61
15.88
18.64
21.50
24.98
29.56
35.46
42.58
50.43
58.10
64.73
69.25
70.82
68.95
63.46
54.56
42.89
29.50
15.34
1.35
-11.73
-23.31
-32.82
-40.07
-44.99
-47.72
-48.52
-48.00
-46.81
-45.62
-44.89
-44.75
-45.04
-45.42
-45.46
-44.92
-44.05
-43.39
-43.63
-45.63
-49.18
-53.78
-58.54
-62.56
-65.27
-66.73
-67.89
-69.20
-71.11
-73.36
-75.18
-75.36
-73.09
-68.18
-61.39
-54.07
-47.61
-43.19
-41.60
-43.48
-48.90
-56.75
-64.05
-66.22
-58.50
-38.11
-6.25
31.86
68.59
96.96
113.25
117.89
114.44
107.41
100.26
94.46
90.06
86.54
83.58
81.08
78.94
76.76
74.11
70.79
66.96
63.30
60.78
60.20
61.57
63.71
64.14
59.93
48.65
29.63
4.90
-20.96
-42.11
-53.84
-54.59
-46.94
-36.32
-28.67
-27.64
-33.10
-41.60
-48.56
-50.86
-48.16
-42.69
-36.87
-32.17
-28.56
-24.91
-20.44
-15.90
-13.76
-16.62
-25.29
-36.68
-45.01
-44.25
-31.06
-6.32
25.53
58.67
88.47
109.37
118.49
116.22
105.45
89.50
70.49
49.45
27.25
5.14
-15.60
-33.22
-46.71
-56.10
-62.29
-66.58
-69.96
-72.94
-75.28
-76.70
-75.66
-70.67
-60.89
-46.32
-27.67
-6.06
16.88
39.34
59.29
75.82
88.85
99.54
109.95
122.38
138.11
156.45
174.76
186.09
185.23
169.21
138.36
96.46
49.91
6.15
-28.28
-49.48
-57.26
-54.46
-46.05
-37.13
-31.27
-29.69
-31.61
-34.97
-37.20
-35.99
-29.65
-18.51
-5.71
3.48
3.80
-7.05
-26.41
-47.34
-62.06
-66.09
-60.90
-52.99
-49.94
-56.29
-71.79
-92.59
-113.98
-132.07
-144.36
-149.52
-147.07
-137.69
-123.61
-108.55
-96.10
-88.26
-83.95
-80.43
-75.35
-68.82
-62.94
-59.70
-58.94
-58.10
-54.48
-47.10
-38.50
-33.40
-35.47
-44.14
-53.90
-56.94
-47.20
-23.50
11.33
51.91
93.17
132.15
168.58
204.01
240.14
277.45
308.31
324.73
321.23
297.75
258.74
210.80
160.48
112.83
71.46
38.05
14.15
0.02
-6.61
-11.00
-20.87
-42.47
-77.62
-122.06
-166.21
-197.38
-205.02
-181.80
-131.34
-66.67
-4.36
41.89
65.46
67.20
53.56
32.50
10.67
-8.47
-23.63
-34.37
-40.49
-41.65
-38.03
-30.47
-21.06
-12.58
-7.63
-7.48
-11.08
-15.72
-18.45
-17.52
-12.86
-6.09
0.49
4.66
5.48
3.63
0.87
-0.87
-0.38
2.40
6.55
10.72
13.67
14.82
14.53
13.72
13.46
14.49
16.98
20.57
24.63
28.48
31.62
33.83
35.10
35.46
34.93
33.43
30.80
26.95
21.97
16.07
9.68
3.27
-2.65
-7.64
-11.43
-13.87
-15.01
-15.01
-14.10
-12.52
-10.51
-8.24
-5.84
-3.37
-0.83
1.69
4.12
6.46
8.75
11.02
13.34
15.83
18.55
21.57
24.69
27.72
30.62
33.34
35.99
38.72
41.75
45.31
49.62
54.43
59.55
64.88
70.44
76.35
82.93
90.48
99.21
109.19
119.64
129.76
138.82
146.26
151.75
155.20
156.36
154.34
151.13
146.47
139.52
129.41
115.73
98.69
79.22
58.49
37.38
16.08
-6.56
-31.95
-61.29
-94.90
-131.95
-170.76
-209.35
-246.21
-280.74
-313.75
-346.57
-380.83
-418.23
-460.13
-506.76
-556.16
-603.44
-641.07
-661.07
-657.40
-628.61
-578.60
-515.21
-447.28
-381.85
-322.73
-270.89
-226.11
-187.99
-156.41
-130.92
-109.99
-90.91
-70.72
-47.57
-21.57
5.31
30.56
52.22
69.98
85.39
101.15
119.68
141.81
166.28
190.44
211.98
229.52
243.16
254.56
266.48
281.95
303.57
332.72
368.65
408.86
446.89
473.49
480.21
463.61
427.34
380.79
334.83
297.26
272.29
258.02
249.47
242.84
238.04
237.86
244.88
258.90
276.41
294.65
309.22
315.07
307.97
286.24
250.90
205.26
153.81
85.70
3.70
-79.39
-148.54
-195.55
-220.21
-226.54
-219.43
-203.86
-184.75
-163.59
-142.28
-122.98
-106.95
-93.63
-81.13
-67.89
-53.00
-38.63
-25.96
-17.41
-15.94
-23.44
-39.61
-62.12
-87.59
-112.26
-134.28
-151.99
-165.32
-175.38
-183.70
-191.47
-199.01
-205.28
-207.71
-202.59
-185.52
-154.62
-112.48
-65.71
-22.72
9.78
29.20
37.26
38.19
36.57
34.99
33.59
31.40
27.92
24.01
21.38
21.32
23.78
27.40
30.28
30.74
28.37
24.04
19.51
16.61
16.34
18.53
21.91
24.71
25.53
23.82
20.27
16.34
13.71
13.48
15.68
19.31
22.67
24.27
23.34
20.34
16.67
14.08
13.82
16.19
20.32
24.43
26.91
26.74
24.06
19.93
15.77
12.88
12.22
14.37
19.17
25.15
29.08
26.51
13.35
-12.04
-46.86
-84.29
-115.67
-133.89
-136.18
-124.80
-105.35
-83.71
-63.67
-46.19
-30.56
-16.27
-4.13
3.79
5.41
-0.07
-11.31
-25.29
-38.19
-46.98
-50.54
-49.80
-47.21
-45.30
-45.82
-48.82
-53.39
-58.38
-63.33
-68.04
-71.34
-70.70
-63.26
-48.19
-28.40
-10.30
-0.57
-2.27
-12.59
-23.85
-27.86
-20.72
-5.12
11.28
20.41
18.30
6.78
-8.29
-20.93
-27.90
-29.49
-28.00
-25.46
-22.81
-20.13
-17.95
-18.26
-23.89
-36.94
-56.87
-79.87
-99.86
-110.75
-109.26
-95.11
-71.38
-42.54
-12.41
16.91
44.07
66.81
81.15
82.70
69.51
44.31
15.00
-8.18
-17.14
-9.81
9.29
31.56
49.00
58.12
60.76
62.38
68.52
82.43
104.15
131.50
161.01
188.35
208.15
214.19
201.27
167.56
116.80
57.91
2.37
-40.10
-65.04
-73.66
-70.70
-60.44
-44.09
-20.50
10.61
45.13
73.72
84.65
68.99
25.41
-38.27
-107.68
-167.25
-205.48
-217.91
-206.89
-178.79
-140.63
-97.69
-52.88
-7.50
37.74
82.05
124.58
164.82
202.80
238.98
273.43
304.96
330.74
347.11
351.56
344.35
328.91
310.70
294.40
281.57
270.07
255.23
232.60
200.58
161.18
118.85
78.42
43.68
16.94
-0.32
-7.35
-4.31
6.73
21.37
33.39
36.83
28.24
7.77
-21.37
-55.25
-90.87
-126.98
-163.40
-199.83
-234.92
-266.16
-290.28
-303.14
-301.90
-286.14
-258.10
-221.68
-181.04
-139.46
-99.35
-62.58
-30.33
-3.82
16.26
30.12
39.01
44.78
49.75
55.93
64.41
75.45
87.89
99.72
108.94
115.22
117.43
115.07
108.04
96.20
79.27
56.11
25.41
-13.50
-59.10
-107.80
-154.95
-196.02
-230.21
-255.64
-271.75
-279.50
-281.02
-279.25
-277.74
-279.64
-286.70
-298.14
-310.05
-316.86
-313.58
-297.86
-271.47
-239.60
-208.37
-182.38
-161.22
-143.32
-126.29
-108.45
-89.77
-71.66
-55.90
-43.28
-33.40
-25.44
-19.18
-15.47
-16.04
-22.89
-37.03
-57.60
-81.95
-106.22
-126.81
-141.72
-150.64
-155.03
-156.87
-157.49
-156.34
-150.98
-137.85
-114.07
-79.33
-36.42
9.11
50.72
82.98
103.57
113.55
116.73
118.06
121.93
131.71
149.01
173.09
200.05
223.10
234.07
227.09
201.68
163.77
124.70
95.75
83.31
86.79
99.91
114.53
126.13
134.71
142.77
154.16
170.13
188.61
205.60
217.18
220.04
215.30
207.63
203.33
211.41
238.21
283.76
340.76
396.89
437.43
456.25
457.17
451.27
454.84
479.65
527.43
590.53
656.55
711.37
749.92
774.20
765.87
713.48
612.25
466.36
289.32
120.93
-25.07
-143.99
-234.90
-298.96
-339.88
-358.89
-357.63
-338.27
-303.96
-262.49
-220.49
-185.34
-164.97
-162.72
-177.34
-203.86
-234.65
-264.42
-289.80
-306.34
-310.96
-302.93
-281.64
-247.79
-204.49
-156.40
-109.47
-70.58
-43.35
-28.63
-25.61
-31.97
-46.28
-69.94
-105.05
-154.38
-220.58
-303.90
-401.50
-506.74
-608.99
-695.60
-755.12
-780.53
-771.74
-735.34
-681.60
-620.95
-561.05
-505.54
-455.17
-409.80
-369.66
-335.62
-308.07
-285.89
-266.45
-246.51
-223.40
-195.95
-164.49
-130.19
-94.06
-56.14
-14.95
31.32
83.86
142.33
204.57
267.06
326.00
378.35
422.62
459.54
490.63
517.30
540.20
559.07
573.23
582.48
587.48
589.93
593.28
600.75
614.74
636.26
664.25
695.27
723.41
740.87
739.44
714.32
664.27
592.50
505.95
413.04
321.59
237.34
163.47
92.30
19.91
-54.77
-129.37
-199.29
-259.71
-307.45
-341.40
-362.09
-371.02
-368.85
-357.14
-338.14
-314.66
-289.41
-264.40
-240.78
-218.10
-196.74
-176.70
-159.01
-145.51
-138.64
-140.97
-154.32
-178.56
-210.63
-242.99
-265.50
-269.85
-252.98
-218.52
-175.54
-134.74
-104.18
-86.71
-80.40
-80.51
-82.69
-84.57
-85.52
-85.33
-83.73
-78.72
-67.96
-50.17
-25.70
3.61
35.01
65.58
92.51
113.36
126.65
132.25
131.63
127.63
123.68
122.79
126.95
136.55
150.50
166.46
181.00
190.01
189.42
176.25
148.83
109.34
63.14
17.17
-22.26
-51.55
-70.40
-81.05
-87.09
-92.03
-98.60
-108.80
-123.92
-144.09
-167.98
-192.71
-214.09
-227.94
-231.36
-223.45
-205.40
-179.77
-149.52
-117.68
-87.37
-61.83
-44.09
-36.01
-37.43
-45.87
-57.40
-68.12
-75.68
-79.85
-82.03
-83.99
-86.46
-88.44
-87.51
-80.88
-66.59
-44.31
-15.41
17.67
52.22
86.07
117.67
145.64
168.45
184.36
191.78
190.17
180.44
164.85
146.18
126.47
106.44
85.61
63.26
39.41
15.05
-8.49
-30.43
-51.31
-73.06
-97.84
-127.02
-160.33
-195.61
-229.14
-256.84
-274.93
-281.32
-276.22
-261.82
-241.69
-219.28
-196.53
-173.31
-148.61
-120.97
-90.25
-57.66
-24.14
9.90
44.15
77.23
105.70
123.35
125.24
109.89
81.51
51.20
33.47
40.66
77.85
140.54
215.08
285.80
339.56
362.20
347.96
300.81
231.78
153.61
82.86
21.96
-30.80
-76.27
-112.89
-138.44
-149.93
-146.64
-131.05
-107.55
-81.59
-55.95
-31.30
-7.18
18.11
46.21
78.06
114.03
154.36
197.96
243.27
286.56
321.41
340.97
340.66
320.48
285.87
246.13
210.38
185.04
171.29
164.96
159.06
146.86
124.25
90.71
49.22
4.59
-37.65
-72.77
-97.91
-112.54
-118.13
-117.24
-112.05
-103.05
-88.34
-63.76
-24.62
31.82
103.13
180.56
250.31
297.45
311.00
287.94
234.33
162.79
87.69
19.75
-36.24
-80.65
-116.44
-146.54
-172.73
-196.08
-217.98
-240.66
-267.21
-300.00
-339.02
-381.92
-425.37
-466.55
-504.29
-538.76
-561.67
-564.26
-539.39
-483.91
-400.75
-298.46
-188.67
-83.24
8.02
76.36
123.04
154.12
178.81
206.39
242.34
285.10
326.20
353.48
354.75
323.88
263.56
185.71
108.02
48.47
19.83
26.09
61.43
111.81
158.77
183.61
172.56
120.26
30.28
-86.25
-213.10
-331.91
-425.24
-479.41
-487.86
-452.27
-381.79
-290.69
-194.29
-104.87
-29.20
31.36
79.46
119.06
154.30
188.76
223.94
258.16
286.34
301.33
296.60
269.52
223.27
164.08
103.27
52.77
20.05
5.26
2.26
2.99
2.29
-0.53
-3.09
-1.92
4.80
16.30
30.17
43.74
55.25
64.76
73.74
83.65
94.99
106.33
114.01
113.26
99.94
71.87
29.54
-22.73
-79.23
-133.59
-179.26
-210.48
-223.20
-216.54
-194.00
-162.39
-129.81
-103.00
-84.28
-71.08
-59.12
-44.79
-28.31
-16.05
-14.83
-28.62
-56.22
-91.05
-122.86
-141.22
-138.25
-110.69
-60.88
3.96
72.77
132.13
168.73
176.41
158.66
126.39
92.05
64.78
45.60
31.60
19.99
11.27
9.21
17.28
35.47
58.76
78.55
85.66
73.88
42.00
-6.22
-63.38
-122.32
-178.30
-228.39
-270.83
-300.13
-307.92
-285.14
-226.66
-135.49
-24.55
86.73
179.16
240.70
269.67
273.23
262.57
247.63
234.52
225.17
218.37
210.57
196.88
172.66
135.42
86.47
30.66
-24.74
-72.31
-105.99
-121.89
-118.32
-95.93
-58.16
-11.20
36.96
78.76
108.99
125.33
127.66
116.39
92.02
55.92
12.24
-32.19
-68.96
-91.53
-98.12
-91.81
-78.79
-65.22
-55.14
-49.33
-46.37
-43.54
-37.77
-26.91
-10.49
9.52
28.36
40.91
43.37
34.90
17.90
-3.04
-23.68
-41.44
-55.59
-66.67
-74.46
-78.20
-76.73
-69.60
-57.45
-42.01
-25.33
-8.93
6.93
23.92
43.88
67.02
90.29
107.46
111.26
97.01
65.52
23.69
-17.60
-48.13
-62.33
-60.61
-48.20
-31.74
-16.25
-3.84
5.31
11.81
15.66
16.82
16.40
17.09
22.10
33.38
49.65
66.48
77.81
78.73
67.79
47.92
25.02
4.95
-9.20
-18.57
-27.49
-40.64
-60.19
-84.19
-107.26
-122.26
-124.79
-114.30
-94.44
-70.71
-48.14
-29.32
-14.37
-2.13
8.29
16.84
22.86
25.81
25.76
23.34
19.42
14.78
9.63
3.88
-2.56
-9.13
-14.73
-18.06
-18.15
-14.71
-8.30
-0.56
6.01
8.78
6.22
-1.23
-10.54
-16.85
-15.11
-2.77
17.97
40.01
53.91
52.66
35.45
8.15
-19.80
-39.72
-47.49
-43.94
-32.51
-16.08
4.60
29.60
57.76
84.51
104.03
111.98
107.92
95.99
82.74
73.81
71.17
72.56
71.95
63.04
41.78
7.88
-34.48
-77.73
-113.18
-134.00
-133.89
-115.46
-85.96
-53.22
-22.83
2.79
22.78
38.30
49.28
55.26
56.02
52.96
48.77
45.74
44.85
44.84
42.72
34.84
18.61
-5.21
-33.73
-62.78
-88.48
-108.46
-122.30
-131.08
-136.79
-141.37
-146.43
-152.61
-158.79
-161.98
-157.81
-142.13
-113.38
-74.21
-31.27
7.20
34.33
47.50
48.57
42.25
33.31
24.61
16.80
9.59
3.32
-0.81
-0.75
4.62
14.40
25.97
36.06
42.15
43.69
42.37
41.12
42.50
47.43
54.76
61.94
66.00
64.61
56.95
44.31
29.36
15.07
3.66
-4.03
-8.28
-9.78
-9.27
-7.06
-2.46
5.31
16.37
29.99
45.07
60.49
74.85
85.81
87.90
76.86
51.78
17.19
-17.21
-40.01
-42.98
-24.61
8.24
42.89
67.03
74.85
68.56
54.10
35.77
14.72
-8.74
-33.02
-54.02
-66.28
-66.24
-54.28
-34.88
-14.70
0.76
10.54
16.57
23.31
36.61
60.51
94.45
133.17
168.74
189.69
191.15
172.61
135.73
82.49
14.73
-64.73
-150.30
-235.29
-309.92
-364.67
-394.65
-400.65
-387.69
-362.56
-332.17
-302.03
-276.26
-256.94
-243.67
-233.95
-223.27
-206.41
-177.45
-135.29
-83.32
-28.03
24.15
69.55
108.05
142.51
176.65
212.75
249.90
285.03
313.98
333.58
342.54
341.78
334.36
324.48
315.57
307.98
298.38
280.88
250.28
205.57
151.96
100.17
63.07
50.84
66.54
104.90
153.43
196.15
218.07
209.50
168.86
103.43
27.68
-40.84
-86.70
-101.33
-84.86
-45.01
6.32
57.13
97.93
122.93
129.61
117.96
89.42
47.01
-4.95
-61.19
-116.81
-169.07
-217.69
-263.44
-306.28
-344.41
-373.99
-391.34
-395.88
-391.27
-384.17
-380.34
-380.24
-379.51
-372.20
-354.78
-328.37
-298.13
-269.96
-247.22
-229.24
-210.85
-188.29
-162.37
-138.07
-120.51
-111.12
-106.08
-98.04
-79.50
-42.64
14.57
87.75
167.84
245.79
316.09
377.55
431.34
479.27
526.92
577.43
629.68
678.11
715.31
734.40
730.50
701.53
623.08
490.21
321.63
152.52
13.13
-85.12
-147.15
-184.13
-205.96
-218.55
-220.48
-210.90
-192.75
-172.36
-156.06
-146.90
-144.52
-146.37
-149.52
-148.44
-139.96
-124.46
-105.42
-86.89
-71.26
-58.90
-49.09
-40.89
-31.28
-18.88
-4.52
8.69
17.23
18.65
12.10
-1.87
-21.96
-45.37
-69.75
-93.13
-113.91
-129.33
-135.18
-127.55
-104.91
-69.89
-28.81
9.79
38.04
50.53
45.60
24.93
-8.23
-49.72
-94.48
-135.65
-166.29
-177.52
-163.76
-125.43
-69.35
-6.50
52.06
98.68
130.52
148.95
157.32
158.48
154.55
147.57
138.00
127.39
114.77
96.11
67.54
27.85
-19.81
-68.71
-111.38
-143.03
-164.92
-179.44
-190.17
-198.05
-201.13
-195.93
-179.91
-153.27
-119.45
-83.68
-49.27
-21.73
-2.71
9.85
19.90
32.74
52.36
80.13
114.59
151.99
187.01
215.52
234.86
243.82
242.08
229.83
208.03
179.27
148.96
123.75
109.91
110.01
121.73
139.33
156.94
171.20
181.65
189.30
193.79
192.44
180.68
154.03
109.95
50.63
-18.35
-89.11
-152.84
-201.17
-227.80
-231.39
-217.74
-199.68
-193.58
-212.71
-260.84
-329.39
-400.38
-453.42
-473.48
-455.96
-407.05
-340.42
-272.78
-219.72
-192.78
-197.38
-231.53
-285.84
-345.59
-394.60
-419.89
-415.26
-382.50
-329.28
-265.54
-200.02
-138.42
-82.74
-31.92
16.87
66.60
118.20
168.95
212.55
240.82
247.46
231.81
200.55
165.87
141.14
135.85
152.72
188.40
236.34
290.10
344.87
396.90
442.08
475.51
492.84
492.39
476.66
451.30
422.46
393.49
363.70
329.69
288.73
241.85
194.54
154.52
127.58
113.95
107.16
96.52
71.89
28.77
-28.97
-89.89
-139.04
-163.63
-157.93
-125.69
-78.65
-31.46
3.74
21.06
21.16
8.30
-13.41
-42.47
-79.80
-126.60
-181.90
-242.19
-303.12
-362.07
-419.42
-477.56
-537.82
-597.65
-649.72
-683.82
-690.69
-665.44
-609.17
-528.43
-433.23
-334.50
-241.93
-162.59
-100.38
-55.83
-26.23
-6.34
10.21
29.60
56.19
91.41
133.58
178.55
221.60
259.58
292.29
322.47
354.53
392.51
438.51
492.50
552.83
617.13
682.31
743.90
795.42
829.12
838.02
818.68
772.88
707.31
631.13
552.86
478.04
408.71
344.44
283.82
225.36
167.73
109.44
49.13
-13.97
-79.55
-146.20
-211.78
-274.46
-333.55
-389.83
-445.22
-502.02
-562.12
-626.12
-692.29
-755.76
-808.58
-841.27
-845.59
-817.48
-758.45
-675.17
-576.82
-471.80
-365.59
-260.99
-159.99
-66.11
15.26
78.81
121.73
145.47
155.26
158.04
159.60
163.43
170.62
180.86
193.78
208.18
221.67
231.37
236.12
238.01
242.18
253.49
273.10
296.91
315.82
319.94
303.77
269.74
226.87
185.88
152.64
125.50
97.69
61.12
11.43
-48.96
-110.88
-163.06
-193.16
-195.94
-180.26
-158.22
-138.65
-124.70
-117.82
-119.12
-130.29
-152.49
-184.64
-221.27
-252.27
-267.73
-263.01
-241.29
-211.54
-183.95
-165.06
-155.21
-148.73
-136.37
-110.43
-68.28
-13.17
47.59
105.19
151.93
182.74
195.89
193.27
179.12
158.89
138.50
123.94
120.09
129.22
149.92
177.09
203.59
222.47
229.44
224.14
209.79
191.22
172.57
156.18
142.87
133.01
127.02
124.63
124.10
122.67
118.61
113.62
113.31
125.07
153.29
195.34
240.65
274.27
282.29
256.99
198.76
114.99
17.68
-78.87
-159.46
-210.25
-222.27
-195.73
-142.21
-82.74
-41.61
-37.58
-77.13
-152.07
-243.08
-326.57
-382.71
-401.08
-383.04
-340.26
-290.25
-250.49
-232.70
-239.10
-262.56
-289.81
-306.54
-302.61
-275.26
-229.20
-174.54
-122.99
-83.65
-59.84
-48.40
-41.58
-31.01
-11.96
14.20
40.46
57.40
57.45
37.59
-0.12
-50.07
-105.13
-157.94
-201.17
-227.64
-231.31
-208.93
-161.79
-96.05
-21.34
51.63
113.75
159.41
187.18
199.58
202.16
201.60
203.58
210.83
222.21
233.60
240.60
241.37
238.36
237.38
244.03
259.59
278.64
289.93
280.33
240.41
168.65
72.78
-32.27
-128.87
-201.71
-241.45
-245.95
-219.84
-172.72
-116.89
-64.68
-25.53
-3.37
4.65
6.63
11.94
26.36
48.46
69.76
78.68
66.71
33.49
-11.60
-53.04
-75.59
-70.79
-40.52
4.17
48.03
77.69
85.84
72.51
42.29
1.68
-43.60
-88.94
-129.75
-160.50
-174.85
-168.16
-139.81
-95.46
-43.82
6.53
50.52
87.28
118.05
143.11
160.35
167.24
162.22
149.69
138.62
138.29
152.96
178.65
204.49
218.43
214.36
192.66
161.41
129.76
101.86
74.53
39.60
-9.88
-79.38
-151.91
-213.15
-247.39
-245.27
-207.58
-145.12
-75.37
-16.94
16.06
18.86
-5.59
-45.54
-86.04
-114.17
-123.18
-113.75
-92.36
-67.80
-47.17
-36.27
-36.95
-48.84
-69.51
-94.29
-116.57
-129.13
-126.43
-106.26
-71.22
-25.76
25.52
79.11
132.15
181.02
220.72
245.93
253.58
243.98
221.42
191.71
159.93
129.07
100.70
76.40
58.61
49.92
51.31
61.75
78.19
96.96
114.73
128.62
136.48
137.62
134.35
132.82
141.72
168.10
212.65
267.29
317.31
347.60
349.36
323.58
279.08
226.87
174.17
122.03
67.36
7.44
-56.59
-119.79
-175.92
-221.33
-256.70
-286.63
-316.79
-351.38
-391.90
-437.21
-484.60
-530.44
-570.52
-600.27
-615.70
-614.77
-598.38
-570.41
-535.88
-498.87
-460.63
-419.50
-372.15
-315.72
-249.72
-176.86
-102.78
-34.47
21.80
62.58
88.31
103.17
113.57
125.65
143.75
169.85
204.45
247.36
297.70
352.83
407.77
455.98
491.40
510.90
515.18
507.46
490.85
466.32
432.74
388.62
334.82
275.30
215.93
161.57
113.37
67.95
18.97
-39.49
-109.60
-187.57
-264.18
-327.31
-366.26
-375.50
-356.69
-317.74
-269.66
-222.27
-180.81
-145.15
-111.07
-73.08
-26.93
28.77
91.86
156.51
214.23
256.08
275.91
273.38
254.71
230.09
209.02
195.85
187.76
176.61
153.17
111.53
51.89
-19.33
-91.43
-152.28
-191.70
-204.13
-190.66
-159.14
-121.89
-91.39
-76.53
-80.42
-100.89
-133.00
-170.51
-206.20
-231.34
-236.15
-213.23
-162.50
-94.66
-29.66
10.29
10.31
-29.90
-95.19
-161.26
-204.20
-208.98
-173.03
-104.20
-16.24
76.01
159.48
223.53
260.00
263.63
233.77
176.08
102.83
30.98
-22.47
-46.24
-39.11
-10.25
24.67
50.40
58.13
47.46
24.10
-5.41
-37.94
-74.68
-118.42
-169.96
-226.45
-282.55
-333.03
-374.54
-405.14
-422.64
-423.77
-404.92
-364.67
-305.91
-235.77
-163.43
-97.22
-42.41
-0.48
30.06
52.54
71.22
90.53
114.35
145.16
183.35
226.88
271.95
314.01
348.86
374.09
389.85
399.05
406.81
418.69
438.30
465.38
495.24
520.53
534.44
533.61
519.22
495.54
466.93
435.37
399.81
357.69
307.19
248.53
183.53
114.39
42.57
-31.12
-105.63
-179.01
-248.45
-311.48
-367.04
-415.80
-459.59
-500.41
-540.03
-579.73
-619.93
-659.55
-695.16
-720.96
-730.32
-718.50
-685.13
-635.20
-577.33
-520.46
-470.52
-429.05
-393.75
-360.63
-326.23
-288.69
-247.82
-204.44
-159.72
-115.09
-72.20
-32.53
3.17
35.35
66.21
99.04
136.99
181.35
230.24
278.62
319.96
349.00
364.32
369.37
371.28
378.21
396.23
427.19
468.43
513.89
556.25
588.87
607.36
609.97
596.97
569.47
527.89
471.23
397.28
304.77
196.14
79.50
-31.87
-122.52
-179.81
-198.44
-182.54
-144.76
-102.29
-71.63
-63.83
-81.32
-117.51
-159.63
-193.58
-209.41
-205.45
-188.94
-172.86
-170.01
-186.84
-220.22
-258.46
-286.68
-293.34
-275.37
-238.92
-195.91
-158.13
-131.82
-116.01
-104.73
-91.42
-72.89
-50.48
-27.69
-6.63
14.28
39.86
74.98
121.05
174.40
227.47
271.93
302.41
318.27
323.29
323.63
325.16
331.01
340.38
348.70
349.38
336.68
308.44
267.51
220.84
176.34
139.27
109.55
81.90
48.18
1.65
-59.38
-129.53
-197.31
-248.57
-271.04
-258.78
-214.80
-151.17
-85.60
-35.70
-12.58
-16.46
-36.77
-56.76
-61.05
-42.43
-4.82
38.93
72.88
84.75
70.37
34.01
-14.56
-64.98
-110.01
-147.20
-178.05
-205.97
-234.30
-264.92
-297.93
-331.77
-363.66
-389.92
-406.34
-408.80
-394.21
-361.39
-311.92
-250.04
-181.92
-114.33
-53.10
-1.94
38.18
69.32
95.96
123.85
158.01
201.01
251.71
305.54
355.69
394.93
417.37
419.79
402.19
367.64
321.46
269.67
217.21
166.32
116.30
64.92
10.90
-44.02
-94.47
-133.24
-154.35
-155.76
-140.05
-112.73
-79.66
-45.51
-13.94
11.21
24.77
20.93
-4.37
-51.27
-115.27
-188.73
-263.36
-331.97
-388.57
-427.46
-442.92
-430.23
-388.14
-321.00
-238.52
-153.36
-77.05
-16.77
25.69
52.83
69.55
81.32
92.93
107.61
125.92
145.27
160.14
164.02
152.19
123.99
83.24
36.80
-8.03
-45.43
-71.41
-82.91
-77.13
-51.76
-6.43
55.73
128.12
202.40
271.27
330.29
377.97
414.17
438.41
449.14
444.65
424.95
392.86
353.57
312.55
273.32
236.50
200.90
165.90
133.56
108.82
97.21
101.45
119.02
142.51
162.36
171.06
165.73
148.16
122.54
92.13
57.08
14.61
-38.50
-102.79
-174.24
-244.76
-304.79
-346.38
-365.73
-363.96
-346.15
-319.59
-292.06
-270.67
-260.88
-265.39
-282.98
-308.04
-331.45
-343.03
-334.87
-303.96
-252.85
-188.35
-118.95
-52.46
4.95
49.42
79.37
95.35
100.07
97.99
94.25
93.53
98.90
111.45
130.72
155.52
184.39
215.91
248.45
279.70
306.55
325.39
332.62
326.01
305.50
273.51
234.37
192.75
151.66
111.20
68.84
21.50
-31.51
-86.74
-137.19
-175.30
-196.65
-202.17
-197.49
-190.04
-185.66
-186.71
-192.89
-203.46
-218.96
-241.06
-270.26
-303.45
-333.31
-350.56
-348.13
-325.16
-288.19
-248.70
-218.08
-202.07
-197.99
-196.03
-184.23
-154.68
-107.64
-51.23
2.82
44.84
70.97
83.35
87.28
87.72
87.61
88.55
92.32
101.30
116.73
136.48
154.41
162.99
157.76
140.74
120.24
106.57
106.24
118.07
133.91
143.10
138.10
118.07
88.62
58.72
36.66
27.17
30.48
43.00
58.47
69.37
68.53
51.15
16.57
-30.88
-82.75
-128.97
-161.01
-174.23
-168.59
-147.88
-118.01
-85.42
-56.14
-35.20
-26.11
-30.12
-45.70
-68.53
-92.40
-110.95
-119.70
-117.70
-107.81
-95.78
-88.16
-90.00
-103.04
-125.11
-151.18
-175.33
-193.41
-204.67
-211.61
-217.94
-225.96
-234.57
-239.36
-234.63
-215.91
-182.66
-138.52
-89.58
-41.62
2.22
42.36
81.85
124.68
175.00
234.85
303.70
377.82
450.36
512.51
556.01
576.53
576.01
563.83
552.03
550.86
564.84
591.36
622.20
646.53
654.13
637.56
594.74
526.89
438.28
335.50
226.59
119.83
21.99
-62.64
-141.49
-216.74
-286.80
-346.59
-391.10
-418.54
-430.39
-430.44
-422.90
-411.42
-397.15
-380.40
-361.11
-339.04
-315.39
-292.19
-271.66
-255.25
-243.23
-234.36
-228.51
-227.22
-232.68
-245.56
-262.74
-277.24
-280.91
-266.23
-229.99
-175.83
-112.67
-50.83
1.85
41.97
69.77
87.60
98.16
103.85
106.86
109.35
113.48
120.99
132.78
148.72
167.93
189.34
212.18
236.23
261.95
290.29
322.08
357.17
393.70
427.78
454.30
468.42
467.47
452.13
426.01
393.67
358.24
319.93
276.45
224.99
164.62
97.74
29.62
-33.46
-86.79
-128.60
-159.76
-182.55
-198.98
-209.90
-215.35
-215.90
-213.56
-211.75
-213.58
-219.65
-226.47
-227.19
-214.74
-185.83
-143.34
-95.65
-53.09
-23.52
-9.99
-11.06
-23.41
-44.29
-71.94
-103.94
-135.18
-157.79
-163.59
-148.21
-113.93
-69.53
-26.93
3.71
17.77
16.85
6.17
-9.28
-27.86
-51.90
-85.38
-130.27
-183.73
-237.76
-281.90
-307.28
-309.94
-291.63
-257.82
-214.41
-165.36
-112.52
-57.41
-3.12
45.30
82.46
105.29
115.05
117.15
118.66
124.94
137.03
151.25
160.78
158.76
141.40
109.92
70.46
32.07
3.67
-9.15
-5.95
8.83
28.00
44.46
53.48
53.44
45.14
30.51
11.46
-10.39
-33.56
-56.35
-76.88
-93.22
-103.77
-107.44
-104.16
-95.78
-86.58
-82.70
-90.02
-110.99
-141.98
-173.21
-192.04
-188.43
-159.89
-113.07
-60.96
-17.12
10.09
20.27
19.82
17.74
21.28
33.50
53.36
77.86
103.97
129.87
154.88
178.68
200.78
220.28
236.05
247.10
252.79
252.85
247.32
236.47
220.62
199.78
173.55
141.30
102.42
57.20
7.14
-45.44
-98.29
-150.16
-200.77
-249.77
-295.43
-334.11
-360.94
-371.65
-364.56
-341.45
-306.95
-266.99
-226.91
-190.48
-159.39
-133.57
-111.15
-88.91
-63.30
-32.30
2.52
34.99
55.41
53.80
23.91
-34.05
-112.92
-200.45
-282.83
-348.03
-388.31
-401.34
-390.06
-361.20
-323.26
-283.95
-248.13
-216.87
-187.98
-157.79
-123.11
-82.31
-35.24
17.45
74.92
136.45
200.69
265.17
326.44
380.75
425.43
460.13
486.86
508.76
528.26
545.30
557.04
559.34
549.26
527.00
496.13
461.92
429.15
400.61
377.11
358.61
345.38
338.04
336.57
338.97
341.01
337.31
323.26
296.82
259.20
214.09
166.15
119.72
77.80
41.76
11.56
-14.05
-37.26
-60.61
-86.66
-117.32
-152.96
-191.90
-230.55
-264.73
-291.54
-310.68
-324.22
-334.97
-344.51
-351.94
-354.55
-349.54
-335.69
-313.93
-286.45
-255.37
-222.14
-188.15
-155.52
-127.49
-107.57
-98.04
-99.10
-109.48
-127.77
-153.33
-185.79
-223.22
-260.63
-290.09
-303.06
-293.64
-261.12
-210.48
-150.56
-91.35
-41.60
-7.74
6.10
-2.37
-33.74
-86.45
-155.96
-234.14
-309.78
-370.50
-405.67
-409.36
-382.18
-331.01
-266.41
-198.98
-136.04
-80.34
-30.68
16.17
63.23
112.47
164.90
221.19
281.78
346.36
413.16
479.02
540.19
593.57
637.73
672.64
698.45
714.05
716.48
701.69
666.51
610.48
536.40
449.45
355.43
259.52
166.01
78.65
0.63
-66.17
-122.33
-171.00
-216.33
-260.98
-304.07
-341.10
-366.34
-376.17
-371.38
-356.70
-338.05
-319.22
-300.17
-277.88
-249.32
-214.26
-176.25
-141.26
-114.92
-99.84
-94.55
-94.81
-96.15
-96.38
-96.50
-99.47
-107.49
-119.80
-132.25
-139.01
-135.46
-120.44
-96.67
-69.22
-43.28
-22.23
-7.08
2.93
9.21
13.10
15.36
16.20
15.59
13.42
9.63
4.27
-2.82
-12.05
-23.42
-35.97
-47.10
-52.38
-46.71
-26.31
9.45
57.02
109.68
160.84
206.11
244.54
277.51
306.41
330.68
347.71
353.82
346.27
325.95
296.58
263.11
229.49
197.12
165.29
132.98
100.32
68.83
42.11
23.40
14.88
17.60
32.26
60.19
102.96
160.67
220.13
264.79
278.83
255.50
200.75
128.77
54.37
-12.59
-68.66
-114.77
-151.79
-179.46
-196.08
-200.17
-192.67
-176.13
-153.69
-128.07
-101.25
-74.12
-48.85
-29.25
-20.32
-26.25
-48.06
-82.80
-124.88
-167.43
-205.02
-235.88
-261.06
-282.37
-300.66
-315.24
-325.07
-329.98
-330.74
-327.58
-318.70
-300.10
-267.62
-220.03
-161.14
-99.61
-45.71
-7.13
14.14
22.11
24.39
28.23
37.29
50.69
64.51
74.77
79.99
82.04
85.24
94.29
112.21
138.64
169.72
199.00
219.57
226.39
217.86
196.15
165.97
132.65
100.14
70.11
42.30
15.61
-10.81
-37.07
-62.31
-85.10
-103.48
-115.25
-118.20
-110.61
-91.97
-63.68
-29.19
6.35
37.09
57.65
64.36
56.38
36.26
9.66
-15.91
-32.81
-35.05
-19.52
13.92
62.62
121.69
184.49
243.31
290.77
321.42
333.15
327.75
310.23
287.39
265.86
250.76
244.93
248.94
261.54
279.93
300.24
318.01
329.10
330.56
321.25
301.84
274.18
240.75
204.29
168.04
135.61
110.47
94.65
87.71
86.44
85.92
81.62
71.47
56.56
40.34
26.64
17.84
13.94
12.94
11.86
7.84
-1.14
-16.09
-36.95
-62.67
-91.35
-120.69
-148.81
-174.74
-198.73
-221.90
-245.51
-270.31
-296.40
-323.64
-351.86
-380.35
-406.83
-427.04
-435.80
-429.28
-407.39
-374.41
-337.12
-301.72
-271.19
-244.99
-221.22
-199.46
-182.22
-173.43
-175.19
-184.71
-194.15
-193.13
-173.08
-130.82
-69.93
0.79
70.17
128.39
169.54
192.66
200.92
199.23
191.57
179.14
160.10
131.13
90.12
38.12
-20.51
-79.85
-135.07
-184.62
-230.55
-276.88
-326.81
-379.82
-430.53
-469.84
-488.56
-481.32
-449.20
-399.33
-341.82
-285.76
-235.71
-190.80
-146.99
-100.29
-49.14
5.67
62.87
122.04
182.10
240.11
290.85
328.36
349.15
354.68
351.58
348.44
351.04
356.95
358.44
347.60
321.70
284.72
244.38
206.87
173.45
141.12
102.19
51.72
-9.17
-73.61
-133.02
-181.70
-218.92
-247.09
-269.08
-290.42
-315.15
-345.93
-383.92
-429.69
-483.67
-545.58
-612.86
-652.78
-637.21
-552.76
-411.17
-242.16
-76.02
68.70
186.15
278.27
348.87
397.60
424.14
430.11
421.13
405.31
390.46
381.67
380.70
385.77
389.76
385.88
369.97
342.77
307.53
268.19
228.35
190.19
152.82
113.56
70.85
25.40
-18.55
-56.55
-85.35
-103.05
-97.54
-67.56
-19.70
35.46
81.94
117.26
142.23
157.49
164.08
163.15
152.54
130.30
96.40
53.19
5.93
-40.67
-83.67
-120.08
-147.98
-168.59
-184.10
-197.59
-212.28
-230.29
-253.50
-282.95
-314.19
-338.35
-346.58
-332.56
-295.66
-240.79
-176.14
-100.02
-20.83
50.04
104.38
139.81
158.38
163.16
157.31
144.50
128.68
111.62
95.73
83.00
73.95
67.31
61.14
54.25
46.51
38.40
29.22
19.40
9.48
-0.31
-10.37
-21.39
-33.50
-46.10
-57.97
-69.17
-78.02
-82.58
-81.13
-72.64
-56.86
-34.17
-5.73
26.22
57.98
86.63
110.22
128.05
140.48
148.57
153.62
156.47
157.28
155.57
151.23
144.45
136.14
127.67
120.33
115.15
112.67
113.10
116.17
120.57
123.20
119.62
105.73
79.95
44.86
6.83
-26.31
-48.42
-57.51
-56.05
-49.03
-41.11
-34.79
-30.03
-25.75
-21.62
-18.59
-18.43
-22.53
-30.81
-41.61
-52.43
-60.70
-65.12
-66.04
-65.13
-64.77
-66.97
-72.57
-80.91
-90.27
-98.52
-104.33
-107.52
-108.99
-110.38
-113.19
-118.29
-125.87
-135.79
-147.48
-159.57
-169.39
-172.74
-165.59
-146.04
-115.78
-80.35
-47.34
-23.52
-12.43
-13.63
-23.26
-36.92
-51.48
-65.68
-79.36
-92.45
-104.14
-113.24
-119.04
-121.36
-121.35
-120.83
-121.42
-123.69
-126.86
-128.94
-127.21
-123.28
-117.76
-111.69
-106.27
-102.36
-100.05
-98.70
-97.08
-93.98
-88.69
-80.60
-70.08
-58.10
-45.82
-34.09
-23.25
-13.07
-2.98
7.55
19.28
32.31
46.25
60.48
74.52
88.38
102.65
118.36
136.51
157.99
182.77
209.93
238.04
265.73
292.18
317.43
342.33
368.11
396.26
427.98
463.82
503.38
544.89
585.06
619.52
643.97
655.66
654.58
643.41
626.25
606.60
585.74
562.26
533.19
495.88
449.77
396.83
340.83
285.69
234.04
186.67
142.88
101.68
62.35
24.78
-10.73
-43.84
-74.52
-103.20
-130.67
-157.84
-185.17
-212.64
-239.90
-266.57
-292.35
-317.24
-341.61
-366.14
-391.44
-417.11
-441.73
-463.04
-478.37
-485.34
-482.40
-469.55
-448.64
-423.17
-396.59
-373.16
-358.45
-358.76
-379.08
-420.53
-478.97
-545.58
-609.25
-657.47
-681.86
-680.93
-659.29
-623.48
-577.94
-523.88
-460.68
-388.23
-304.63
-210.36
-109.95
-10.81
80.50
160.64
229.52
288.89
341.11
393.41
452.64
521.49
597.82
677.58
757.30
834.33
905.89
934.46
892.45
778.30
618.53
448.11
292.12
161.96
60.08
-15.58
-66.08
-94.49
-103.03
-96.46
-82.27
-67.58
-56.71
-50.68
-47.89
-46.38
-40.16
-24.35
0.29
26.99
45.84
47.84
28.53
-12.97
-67.15
-115.81
-142.46
-142.16
-125.09
-104.24
-89.51
-85.99
-94.81
-113.06
-137.61
-166.13
-197.85
-226.35
-243.93
-245.13
-229.25
-199.94
-162.02
-120.30
-78.68
-40.77
-8.97
15.04
30.57
38.34
40.81
42.03
45.28
52.88
64.57
78.96
92.84
102.61
106.09
103.32
96.85
89.68
84.25
80.07
75.20
65.74
48.03
20.12
-17.38
-59.67
-105.08
-149.97
-190.70
-221.17
-235.34
-229.03
-203.29
-165.76
-128.50
-103.73
-90.40
-85.50
-76.17
-48.51
1.90
64.44
119.29
149.68
150.84
131.29
105.02
85.96
76.12
72.66
72.38
75.83
87.10
109.94
141.23
172.15
192.32
193.84
175.62
143.39
107.07
76.79
58.57
52.55
52.83
50.35
35.86
4.46
-42.44
-98.00
-152.20
-195.61
-222.55
-232.78
-230.28
-220.98
-210.11
-201.04
-194.88
-190.18
-183.45
-170.33
-147.47
-114.79
-76.69
-40.89
-15.51
-6.23
-14.21
-36.94
-68.28
-99.88
-123.39
-132.09
-122.06
-92.95
-48.36
4.97
58.84
106.15
142.89
168.84
186.40
199.03
210.00
221.70
235.77
253.41
275.31
301.02
328.41
353.42
370.53
373.67
357.77
320.47
263.68
193.94
120.97
54.61
1.57
-36.49
-62.88
-83.76
-105.29
-131.16
-161.74
-194.35
-224.40
-246.42
-255.43
-248.54
-226.66
-195.25
-163.13
-139.42
-129.43
-131.86
-138.95
-139.76
-125.24
-92.22
-44.72
8.26
56.62
93.17
115.52
125.35
126.13
120.56
109.61
93.09
71.49
47.55
26.43
14.26
15.54
31.04
57.11
87.14
114.04
132.75
141.47
141.27
134.41
122.77
106.95
86.51
61.00
31.03
-1.23
-32.36
-58.56
-76.72
-85.42
-85.21
-78.41
-68.27
-58.08
-50.17
-45.37
-43.05
-41.63
-39.52
-35.96
-31.50
-27.78
-26.80
-30.05
-37.91
-49.65
-63.95
-79.40
-94.81
-109.28
-121.97
-132.18
-139.62
-144.75
-148.75
-152.97
-158.03
-163.03
-165.43
-161.71
-148.54
-124.22
-89.53
-47.77
-3.86
37.07
71.17
96.62
113.72
124.00
129.11
130.02
126.94
119.93
109.61
97.47
85.43
75.05
66.77
59.73
52.41
43.60
33.12
21.95
11.80
4.21
-0.12
-1.65
-1.76
-2.15
-4.03
-7.59
-11.79
-14.64
-14.09
-9.00
0.24
11.59
22.20
29.46
32.03
30.22
25.59
20.10
15.21
11.47
8.66
6.32
4.18
2.34
1.17
0.86
1.35
2.41
3.72
5.06
6.28
7.44
8.72
10.28
12.07
13.89
15.68
17.57
19.94
23.18
27.56
32.99
39.13
45.19
50.50
54.93
58.85
62.80
67.11
71.84
76.95
82.48
87.66
92.01
95.64
99.12
102.71
105.91
107.57
106.42
101.54
90.59
72.38
47.74
19.28
-10.21
-39.27
-68.04
-97.49
-128.28
-163.02
-202.01
-242.14
-277.71
-303.35
-316.32
-316.77
-306.84
-290.22
-275.97
-272.58
-284.64
-311.19
-347.35
-387.16
-425.57
-459.41
-461.55
-417.25
-330.60
-223.18
-118.06
-27.77
45.04
102.23
147.03
182.34
206.43
218.39
219.90
215.07
207.91
200.29
192.49
185.70
183.13
184.94
191.86
204.60
222.61
242.20
257.08
257.36
241.19
212.70
177.26
140.56
106.71
77.93
54.43
35.51
20.97
12.11
9.67
11.99
16.40
20.03
21.08
18.85
13.85
7.80
3.59
3.31
7.46
15.67
27.25
41.69
57.43
71.96
81.86
83.59
74.00
51.81
18.72
-21.80
-60.19
-87.80
-100.42
-98.92
-87.37
-70.84
-53.07
-35.93
-20.04
-5.58
6.35
14.49
18.45
19.07
18.13
17.69
19.28
23.47
30.14
38.12
46.05
53.23
59.73
66.10
72.88
80.34
87.61
93.39
95.84
93.37
85.18
71.48
53.31
32.46
11.14
-9.03
-26.80
-41.58
-53.21
-61.73
-67.36
-70.44
-71.27
-70.28
-68.08
-65.07
-61.67
-58.18
-54.90
-52.11
-50.08
-48.81
-48.11
-47.85
-47.57
-46.88
-45.60
-43.97
-42.55
-42.06
-43.10
-45.62
-49.33
-53.31
-56.68
-58.72
-59.57
-59.70
-59.92
-61.72
-64.17
-66.60
-67.83
-67.27
-64.78
-61.59
-59.20
-59.14
-62.35
-68.72
-78.13
-89.08
-98.91
-103.30
-97.14
-75.90
-37.98
13.69
72.19
127.76
171.96
200.12
212.08
210.86
200.30
183.28
159.81
132.00
101.41
70.46
42.03
18.27
-0.12
-14.01
-25.03
-35.06
-44.52
-53.62
-61.76
-68.28
-73.20
-77.04
-81.05
-86.43
-93.82
-102.55
-111.38
-118.80
-122.57
-121.12
-113.73
-100.54
-82.31
-60.15
-35.13
-8.79
17.35
41.96
63.76
81.70
95.04
103.54
107.49
107.71
105.13
100.81
95.69
90.35
85.14
80.17
75.45
71.05
67.08
63.48
60.69
58.39
56.33
54.48
52.87
51.68
51.17
51.69
53.29
55.77
58.86
61.39
62.35
61.07
57.39
51.70
44.89
37.71
30.63
23.65
16.43
8.62
0.22
-8.22
-15.62
-20.58
-22.28
-20.74
-16.96
-12.58
-9.04
-7.20
-6.99
-7.56
-7.59
-6.09
-2.07
5.19
15.84
28.88
41.55
49.69
48.41
36.41
16.13
-6.12
-22.68
-27.97
-21.07
-6.02
10.95
24.13
30.60
30.24
24.77
15.78
3.72
-11.99
-31.64
-54.66
-79.13
-102.12
-120.76
-133.29
-139.67
-141.31
-140.84
-140.89
-143.28
-148.69
-156.90
-167.38
-179.13
-191.29
-199.59
-199.09
-185.41
-156.70
-115.10
-66.39
-18.11
23.08
53.52
73.25
84.24
89.02
89.15
85.13
77.27
66.58
54.90
44.27
36.14
30.50
26.56
23.06
19.00
14.16
8.99
4.25
0.48
-2.27
-4.65
-7.11
-10.13
-13.92
-18.29
-22.95
-27.56
-31.96
-36.12
-40.20
-43.62
-45.72
-45.86
-43.59
-38.74
-31.25
-21.01
-7.28
7.50
23.03
39.66
58.14
79.41
104.23
132.74
163.84
194.87
222.03
241.93
252.08
251.98
243.38
229.78
215.21
202.85
194.15
188.74
185.55
182.98
179.58
174.36
166.60
155.55
140.20
119.47
92.83
61.16
26.34
-9.59
-45.35
-80.80
-116.20
-151.10
-183.32
-208.95
-223.27
-223.04
-207.95
-180.78
-146.03
-108.24
-71.23
-38.31
-12.47
4.17
10.99
9.25
1.82
-8.15
-18.96
-31.80
-50.16
-77.65
-113.46
-150.26
-176.70
-184.08
-171.53
-144.94
-112.31
-79.59
-49.29
-21.34
4.65
27.52
44.78
54.36
56.51
53.40
48.56
45.18
44.34
44.02
39.39
25.98
3.16
-24.04
-45.90
-51.53
-33.44
9.27
71.47
139.55
196.90
229.24
227.99
192.37
129.34
51.83
-24.12
-82.96
-113.78
-112.83
-85.01
-43.71
-5.66
15.39
14.08
-4.75
-28.93
-45.43
-46.41
-32.96
-15.87
-9.05
-22.18
-55.53
-100.51
-144.60
-178.57
-200.37
-214.61
-230.15
-253.36
-284.53
-318.57
-349.66
-375.29
-397.33
-418.69
-425.14
-401.31
-340.32
-252.80
-161.89
-90.68
-51.04
-38.45
-37.63
-32.74
-14.53
18.52
62.01
110.94
156.44
193.22
219.26
234.65
240.31
235.86
220.97
196.97
168.06
140.28
119.96
110.67
111.78
119.41
127.39
130.30
125.53
114.29
100.34
88.74
83.42
85.93
95.80
111.04
129.71
151.03
175.88
206.12
243.66
288.82
339.32
390.55
436.44
471.34
491.68
496.68
487.91
468.21
440.27
405.96
366.39
322.52
275.35
225.95
175.25
124.22
74.38
28.13
-11.60
-42.52
-64.48
-80.31
-95.20
-115.04
-144.16
-183.81
-232.02
-284.61
-336.56
-383.04
-419.83
-443.27
-450.55
-440.23
-413.07
-372.34
-323.06
-270.61
-219.02
-169.91
-122.45
-74.83
-25.72
24.15
71.68
112.18
140.90
154.45
151.30
131.78
97.74
52.78
2.65
-44.74
-80.33
-95.97
-86.84
-53.22
-0.83
60.82
120.67
168.70
197.67
204.04
188.18
154.37
110.01
64.15
25.59
0.37
-9.46
-5.79
7.03
23.92
40.35
52.82
58.25
54.43
39.56
13.49
-21.60
-61.07
-98.94
-129.84
-150.70
-162.01
-165.93
-166.52
-167.90
-173.56
-186.36
-208.60
-241.58
-284.33
-333.49
-379.90
-413.44
-425.08
-410.06
-369.61
-310.34
-241.63
-172.34
-110.11
-55.68
-8.71
32.41
69.55
104.30
137.77
170.19
200.33
222.90
235.71
234.21
215.30
178.85
128.20
69.72
11.17
-26.05
-53.81
-68.97
-74.40
-75.74
-79.50
-90.56
-109.96
-133.83
-154.64
-166.56
-162.40
-142.49
-112.39
-80.23
-53.18
-35.41
-27.67
-28.65
-38.07
-51.85
-66.93
-79.39
-85.17
-81.76
-69.46
-51.37
-31.81
-15.10
-1.23
10.75
22.38
34.57
47.23
59.81
72.09
84.37
96.54
108.98
120.67
130.07
135.86
137.61
135.99
132.49
128.80
125.93
124.51
124.15
123.95
122.88
120.08
115.28
108.87
101.78
95.05
89.42
84.98
81.24
77.36
72.60
66.55
59.28
51.21
42.94
35.11
28.27
22.84
18.98
16.47
14.75
12.97
10.38
6.63
2.03
-2.68
-6.60
-9.14
-10.23
-10.14
-9.29
-7.96
-6.25
-4.17
-1.91
0.12
1.45
1.71
0.92
-0.57
-2.21
-3.51
-4.13
-3.98
-3.18
-1.95
-0.53
0.97
2.58
4.42
6.59
8.93
11.16
13.00
14.48
16.02
18.26
21.70
26.36
31.76
37.17
42.05
46.32
50.33
54.49
58.96
63.51
67.59
70.71
72.58
73.26
73.15
72.84
73.05
74.34
76.74
79.36
80.17
76.29
64.58
42.59
9.53
-33.12
-81.62
-130.69
-174.70
-209.08
-231.19
-240.63
-238.80
-227.98
-210.64
-188.89
-164.48
-138.91
-113.68
-90.15
-69.36
-51.75
-37.03
-24.46
-13.17
-2.55
7.44
16.18
22.57
25.71
25.48
22.76
19.18
16.48
15.89
17.69
21.34
25.89
30.65
35.47
40.57
46.02
51.54
56.66
60.90
64.10
66.56
69.00
72.44
77.58
83.93
90.39
95.93
100.21
103.66
107.07
111.24
116.81
123.66
129.91
133.68
134.36
133.16
132.21
132.99
135.65
139.55
143.15
143.25
137.60
125.91
109.78
91.04
70.33
47.33
22.49
-3.92
-33.70
-68.69
-109.69
-155.60
-204.10
-252.80
-299.36
-340.70
-357.36
-333.98
-268.42
-175.24
-74.94
17.97
97.53
158.99
208.28
248.80
279.11
296.76
300.83
292.91
276.66
255.06
230.04
203.50
176.05
146.59
114.63
81.23
49.28
21.96
0.96
-13.81
-22.90
-27.92
-31.18
-34.24
-37.54
-40.68
-43.54
-47.25
-53.94
-65.31
-82.54
-105.83
-134.20
-165.94
-199.43
-233.98
-270.18
-309.27
-352.42
-400.59
-453.93
-511.03
-568.18
-618.99
-655.41
-670.06
-659.11
-624.26
-572.75
-514.67
-459.02
-410.62
-369.26
-331.33
-292.81
-251.77
-209.09
-167.52
-129.79
-97.21
-69.23
-44.30
-21.06
0.67
19.70
34.45
44.22
50.23
55.65
64.50
79.76
101.62
127.11
151.28
169.23
178.03
177.50
169.58
157.08
142.50
127.61
113.53
101.19
91.63
85.97
85.32
90.55
102.01
119.18
140.38
162.63
182.32
196.38
203.72
206.04
207.31
211.88
222.21
237.46
253.80
266.13
270.51
265.77
253.43
236.35
216.90
195.76
172.27
145.70
116.63
87.52
61.93
43.20
32.97
30.58
33.47
38.24
41.71
41.78
37.76
30.13
20.05
8.92
-1.81
-10.72
-16.54
-18.30
-15.63
-8.83
1.03
12.31
23.17
31.95
37.81
40.98
42.59
44.10
46.46
49.57
52.35
53.38
51.64
47.01
40.30
32.65
24.95
17.36
9.73
2.18
-4.27
-7.87
-7.00
-1.34
7.45
16.03
20.75
19.33
12.05
1.86
-6.91
-10.37
-6.85
2.58
14.81
26.36
35.03
40.59
44.24
47.34
50.26
52.11
51.49
47.65
41.20
33.98
28.04
24.62
23.71
24.46
26.02
28.27
31.73
36.92
43.72
51.08
57.54
61.96
64.16
64.82
65.10
65.79
66.83
67.51
66.89
64.50
60.57
56.05
52.13
49.82
49.47
50.67
52.42
53.51
53.12
51.31
49.14
48.25
50.13
55.23
62.34
69.04
72.56
71.11
64.58
54.45
42.71
30.72
18.49
4.73
-12.32
-34.07
-61.14
-93.55
-131.07
-172.92
-216.85
-258.19
-290.07
-305.09
-298.17
-268.91
-222.40
-167.59
-114.15
-69.21
-35.72
-12.80
2.35
12.38
18.77
22.16
23.24
23.52
25.09
29.52
36.94
45.74
53.27
57.32
57.47
55.27
53.42
54.18
58.19
64.10
69.30
70.82
66.19
54.06
34.25
7.56
-24.29
-59.11
-94.59
-128.59
-159.01
-183.51
-199.23
-203.38
-194.55
-173.87
-145.44
-115.15
-88.73
-69.86
-59.39
-56.02
-57.52
-61.61
-66.11
-68.68
-66.66
-57.71
-40.85
-17.49
8.76
33.06
51.18
60.95
62.76
58.92
52.51
45.98
40.58
36.45
33.15
30.30
27.87
25.96
24.61
23.61
22.66
21.81
21.59
22.83
26.11
31.23
37.12
42.17
44.92
44.65
41.64
36.94
31.93
27.83
25.22
23.90
22.98
21.32
18.05
12.89
6.40
-0.30
-5.87
-9.35
-10.52
-9.93
-8.54
-7.33
-6.80
-6.96
-7.35
-7.49
-7.31
-7.18
-7.79
-9.61
-12.49
-15.61
-17.98
-18.94
-18.48
-16.94
-14.44
-10.59
-4.76
3.09
11.70
18.63
21.33
18.55
11.29
2.51
-4.37
-7.08
-5.51
-1.41
2.77
5.31
5.92
5.67
6.27
8.95
13.85
19.77
24.60
26.24
23.53
16.94
8.51
1.13
-2.86
-2.66
0.65
4.66
7.06
6.80
4.64
2.66
2.90
6.09
11.20
16.05
18.54
17.99
15.42
12.95
12.37
14.03
16.66
18.20
17.12
13.22
7.68
2.16
-2.15
-5.09
-7.24
-9.17
-10.82
-11.46
-10.38
-7.59
-4.11
-1.50
-0.90
-2.34
-4.75
-6.74
-7.39
-6.69
-5.34
-4.15
-3.68
-4.17
-5.89
-9.21
-14.37
-20.98
-27.77
-33.01
-35.23
-34.06
-30.48
-26.40
-23.76
-23.88
-27.01
-32.41
-38.58
-43.68
-46.05
-44.79
-40.17
-33.75
-27.80
-24.41
-24.57
-27.61
-31.45
-33.44
-31.31
-24.01
-11.96
3.13
18.89
32.82
42.92
47.92
47.60
42.82
35.50
28.19
23.31
22.30
25.03
29.93
34.74
37.69
38.14
36.67
34.28
31.67
28.81
25.21
20.70
15.82
11.66
9.14
8.20
7.57
5.39
0.28
-7.70
-16.92
-24.83
-29.14
-28.74
-24.10
-16.83
-9.00
-2.42
1.76
3.18
2.30
0.24
-1.49
-1.61
0.47
4.24
8.44
11.77
13.73
14.71
15.70
17.31
19.25
20.50
20.11
18.03
15.30
13.37
13.07
14.19
15.69
16.52
16.31
15.39
14.32
13.22
11.62
8.90
4.88
0.25
-3.71
-5.74
-5.33
-3.01
-0.01
2.34
3.20
2.45
0.61
-1.64
-3.78
-5.74
-7.73
-9.98
-12.40
-14.52
-15.72
-15.66
-14.55
-13.01
-11.67
-10.76
-10.02
-9.00
-7.61
-6.25
-5.68
-6.48
-8.56
-11.05
-12.61
-12.07
-9.06
-4.15
1.30
5.87
8.54
9.09
8.03
6.11
4.01
2.11
0.58
-0.44
-0.61
0.55
3.33
7.53
12.39
16.85
20.14
22.08
23.03
23.55
23.89
23.94
23.34
22.00
20.33
19.17
19.32
20.96
23.52
25.96
27.38
27.73
27.80
28.81
31.52
35.76
40.44
44.27
46.60
47.90
49.36
52.04
56.17
60.98
65.36
68.61
70.89
72.79
74.73
76.46
77.17
76.08
73.13
68.94
64.23
59.27
53.82
47.82
42.09
38.61
39.59
46.17
57.32
69.95
80.26
85.22
83.67
76.28
64.88
51.59
38.38
26.86
17.91
11.20
4.76
-4.63
-20.29
-43.91
-74.46
-108.24
-140.01
-164.67
-178.43
-179.36
-167.12
-142.78
-108.91
-69.75
-30.72
2.95
27.95
44.01
53.60
60.25
66.33
71.45
72.57
65.64
47.97
19.76
-15.70
-53.44
-88.55
-117.57
-138.83
-152.09
-157.73
-156.39
-148.99
-136.88
-121.69
-104.60
-85.93
-65.05
-41.31
-14.68
13.89
42.64
69.44
92.11
108.80
118.32
120.34
114.76
102.19
84.21
63.53
43.35
26.50
14.91
9.34
9.38
12.02
12.88
7.87
-5.02
-24.86
-48.45
-71.75
-91.06
-103.97
-111.45
-116.37
-122.14
-131.46
-146.14
-167.65
-197.29
-235.03
-268.81
-285.00
-274.54
-239.22
-189.29
-136.02
-87.06
-46.19
-13.80
11.68
30.69
42.91
47.98
46.56
39.92
29.19
14.15
-6.17
-32.73
-66.61
-106.95
-150.11
-190.04
-220.61
-234.18
-228.68
-207.31
-176.68
-144.65
-117.15
-96.79
-82.98
-73.46
-65.92
-59.33
-52.97
-45.79
-36.68
-24.78
-9.87
7.51
26.49
46.06
65.15
83.41
101.24
119.55
139.53
162.30
188.38
217.05
245.89
270.88
287.83
293.98
289.05
275.10
255.50
233.44
211.04
189.24
168.33
148.82
131.70
118.10
108.68
103.26
100.93
100.40
100.39
99.71
97.30
92.15
83.30
69.87
51.35
27.86
0.65
-27.74
-53.66
-73.28
-84.00
-85.62
-80.67
-73.28
-67.25
-64.39
-63.97
-63.63
-61.03
-55.31
-47.44
-39.50
-33.46
-30.13
-28.95
-28.63
-28.06
-26.88
-25.44
-24.27
-23.63
-23.29
-22.64
-21.06
-18.03
-13.43
-7.86
-2.69
0.45
0.51
-2.10
-5.29
-6.04
-1.78
8.16
21.93
35.76
45.60
48.77
44.86
35.38
22.62
8.46
-6.01
-20.34
-34.09
-46.58
-56.91
-64.11
-67.13
-64.84
-56.25
-41.07
-20.21
4.02
28.34
49.51
65.48
75.97
82.25
86.29
89.56
92.37
94.05
93.64
90.46
84.56
76.52
67.09
57.11
47.58
39.65
34.49
32.52
32.45
30.76
22.58
3.71
-26.78
-65.18
-104.04
-135.10
-152.88
-156.71
-150.37
-139.52
-128.66
-119.43
-110.93
-101.61
-91.03
-80.41
-71.49
-64.98
-59.70
-53.11
-42.61
-27.12
-7.72
12.75
30.83
43.85
50.95
53.11
52.53
51.47
51.28
52.09
53.17
53.50
52.29
49.16
44.08
37.25
29.19
20.88
13.73
9.21
8.27
10.62
14.77
18.54
20.00
18.29
13.99
8.67
4.18
1.86
2.04
4.07
6.70
8.61
9.02
7.95
6.10
4.40
3.40
3.03
2.78
2.22
1.46
1.12
1.91
4.01
6.83
9.29
10.48
10.19
9.04
7.84
7.09
6.55
5.56
3.61
0.80
-2.17
-4.34
-4.97
-3.89
-1.33
2.19
6.10
9.86
12.97
15.10
16.07
15.83
14.41
11.83
8.18
3.70
-1.18
-5.97
-10.27
-13.92
-16.80
-18.63
-18.77
-16.44
-11.23
-3.59
5.10
12.97
18.50
21.03
20.83
18.59
14.94
10.26
5.12
0.56
-2.04
-1.66
1.54
5.94
9.12
8.94
4.65
-2.82
-11.42
-19.00
-23.98
-25.67
-24.04
-19.59
-13.13
-5.79
1.33
7.53
12.89
18.33
24.99
33.32
42.58
50.79
55.71
55.89
51.44
43.98
35.89
29.27
25.33
24.26
25.63
28.72
32.76
36.83
39.74
40.19
37.14
30.42
21.05
10.97
2.25
-3.73
-6.82
-7.95
-8.52
-9.67
-11.79
-14.66
-17.79
-21.06
-24.81
-29.62
-35.83
-43.13
-50.62
-57.14
-62.18
-66.27
-71.31
-80.10
-95.43
-119.38
-153.15
-197.31
-251.85
-315.62
-385.22
-454.23
-513.81
-554.78
-570.76
-560.57
-528.79
-483.61
-433.57
-384.45
-338.10
-293.50
-248.77
-203.19
-157.61
-113.84
-73.39
-36.92
-4.34
24.44
48.95
68.29
81.35
87.94
89.23
87.86
87.29
90.87
100.85
117.62
139.78
164.55
188.92
210.68
229.16
245.36
261.36
279.13
299.15
319.62
336.68
345.87
343.90
330.15
306.92
278.55
249.71
223.74
201.79
182.89
164.78
144.91
121.39
93.75
63.47
33.88
9.62
-4.81
-6.82
3.15
21.53
43.22
63.67
80.81
95.25
109.00
123.25
136.55
144.67
141.90
123.47
87.95
38.61
-16.86
-67.83
-103.33
-115.21
-100.96
-65.03
-17.91
26.87
57.38
67.34
58.11
37.57
16.23
2.60
-0.31
4.38
9.80
9.17
-0.55
-17.16
-34.30
-44.58
-42.95
-28.79
-5.75
20.33
44.19
63.40
78.68
92.48
106.82
121.52
133.85
139.80
136.40
123.49
103.89
81.57
59.04
35.47
7.03
-30.94
-80.84
-140.91
-205.34
-265.89
-314.24
-343.77
-350.46
-333.17
-293.75
-237.15
-170.82
-103.45
-42.98
5.40
40.12
62.85
76.83
85.06
89.11
89.10
84.51
75.12
61.53
44.72
25.55
4.30
-18.78
-42.02
-61.32
-70.53
-63.57
-37.50
5.50
58.62
113.12
161.89
201.54
232.05
254.50
268.82
273.25
265.60
245.42
215.40
180.91
148.07
121.55
103.36
92.94
88.26
87.33
88.84
92.37
98.02
105.96
116.08
127.98
141.17
155.38
170.79
187.94
207.46
229.64
254.08
279.70
304.93
327.95
346.89
359.96
365.75
363.50
353.61
337.76
318.66
299.32
282.04
267.62
255.26
243.16
229.53
213.34
194.49
173.46
150.79
126.58
100.47
72.04
41.26
8.59
-25.09
-59.04
-93.29
-128.86
-167.02
-207.80
-248.48
-283.44
-305.83
-310.14
-294.76
-262.72
-220.49
-175.41
-133.67
-99.49
-75.79
-65.02
-69.10
-88.58
-121.60
-163.77
-209.47
-253.93
-294.80
-332.15
-367.45
-402.07
-436.57
-471.01
-505.56
-540.75
-576.84
-612.88
-646.50
-674.67
-694.83
-705.89
-707.96
-701.33
-685.59
-659.55
-622.47
-575.46
-522.23
-468.11
-418.09
-374.77
-337.77
-304.66
-272.81
-240.75
-208.41
-176.19
-143.91
-110.52
-74.60
-35.01
8.23
53.70
99.16
142.35
181.78
217.13
249.15
279.16
308.61
338.63
369.71
401.46
432.24
459.23
478.82
487.74
484.25
468.99
444.80
415.66
385.26
356.02
328.93
303.97
280.85
259.39
239.39
220.13
200.23
177.94
151.94
122.12
89.81
57.56
28.29
4.27
-13.46
-25.32
-33.10
-39.71
-48.57
-62.70
-83.54
-110.11
-139.03
-165.46
-184.94
-194.98
-195.67
-189.05
-177.63
-163.23
-146.71
-128.53
-109.49
-90.88
-74.02
-59.48
-46.74
-34.70
-22.48
-9.99
2.11
12.94
21.89
28.86
34.14
38.16
41.39
44.11
46.19
46.95
44.97
38.63
26.98
10.56
-8.30
-25.88
-38.38
-43.19
-39.76
-29.53
-15.33
-0.22
13.41
24.52
33.40
41.08
48.65
56.72
65.34
73.97
81.74
87.88
92.23
95.30
97.96
100.91
104.43
108.37
112.04
114.14
113.51
109.95
104.48
98.91
94.89
93.44
94.70
97.50
99.04
95.35
82.44
57.56
20.07
-28.44
-83.99
-138.81
-181.84
-203.41
-200.92
-179.98
-149.88
-117.93
-87.48
-58.52
-29.79
-1.26
24.89
44.79
55.58
55.95
46.53
28.97
6.06
-18.35
-39.44
-52.43
-54.12
-44.63
-28.07
-9.76
1.35
-2.84
-25.83
-63.35
-104.14
-134.03
-143.74
-133.40
-110.23
-83.44
-58.80
-38.02
-20.55
-5.81
5.92
13.45
16.43
16.14
14.45
14.09
16.81
22.18
27.65
30.39
28.22
21.57
14.51
12.28
19.11
35.32
56.19
72.57
76.71
65.36
40.77
11.62
-15.88
-36.91
-48.84
-51.68
-46.88
-36.85
-24.74
-14.73
-9.14
-9.72
-19.25
-36.93
-60.66
-86.91
-112.77
-133.41
-143.11
-134.50
-103.91
-52.90
12.99
84.37
151.85
209.25
254.66
275.71
266.28
228.24
170.34
103.15
34.78
-28.76
-82.88
-122.39
-149.07
-163.22
-165.79
-159.19
-146.70
-131.82
-116.79
-103.15
-90.31
-75.92
-54.43
-22.28
19.08
62.75
99.06
120.43
125.05
117.74
106.79
101.15
105.08
117.02
131.89
144.82
153.71
159.06
162.18
163.28
161.64
155.73
144.61
128.93
111.13
94.35
81.02
71.87
65.64
60.23
53.20
42.82
28.43
10.58
-9.30
-29.57
-48.87
-66.29
-81.19
-93.15
-101.63
-105.99
-105.59
-100.22
-90.62
-78.48
-65.97
-54.78
-45.45
-37.33
-29.56
-22.09
-15.96
-12.86
-13.29
-15.56
-16.25
-11.78
-0.14
18.59
42.87
70.84
99.75
126.49
147.33
158.88
159.34
149.66
133.68
116.97
104.60
97.64
93.82
89.02
79.45
62.56
36.67
1.04
-43.13
-91.52
-138.79
-179.17
-208.91
-227.86
-240.02
-252.25
-271.31
-300.61
-327.61
-337.65
-320.69
-279.13
-225.13
-170.95
-122.67
-80.30
-41.12
-3.37
30.44
55.64
68.23
67.62
56.86
41.45
27.96
23.32
33.50
59.62
96.90
134.93
161.39
167.04
149.93
116.37
78.38
47.97
30.95
25.71
25.77
24.92
20.84
15.65
13.22
16.04
23.48
31.90
37.24
37.28
33.00
27.69
25.48
28.93
38.08
50.44
62.00
68.94
69.06
62.48
51.23
38.11
25.28
13.50
2.25
-9.92
-24.23
-40.82
-58.44
-74.71
-87.15
-94.31
-96.14
-94.04
-90.37
-87.26
-86.16
-87.65
-91.74
-97.85
-104.42
-108.60
-106.45
-94.62
-71.97
-40.96
-7.21
22.52
43.08
52.93
54.19
50.85
46.43
42.61
39.15
35.12
30.23
25.26
21.61
20.23
20.87
22.19
22.55
20.67
16.40
10.76
5.30
1.48
-0.03
0.37
1.34
1.23
-1.31
-6.77
-14.50
-23.19
-31.32
-37.71
-41.92
-44.28
-45.33
-45.46
-44.39
-41.10
-34.12
-22.21
-4.99
16.61
40.14
62.66
81.62
95.42
103.83
107.91
109.26
109.77
111.00
114.59
120.60
127.67
132.53
130.72
118.38
94.44
62.15
28.14
0.11
-16.58
-21.19
-17.56
-11.79
-9.24
-12.44
-20.56
-30.59
-39.15
-44.18
-45.60
-44.98
-44.39
-45.34
-48.09
-51.51
-54.09
-54.44
-51.57
-44.83
-33.68
-18.12
0.47
18.97
32.81
37.71
31.88
17.66
1.02
-10.98
-13.62
-6.87
5.08
16.18
21.69
20.19
13.60
5.62
-0.38
-2.54
-0.92
3.67
10.46
19.10
29.36
40.71
51.94
61.44
67.67
69.52
67.06
61.55
55.24
50.71
50.04
53.98
61.85
71.88
81.64
89.55
95.07
98.33
99.43
98.15
93.75
85.18
74.96
64.65
55.66
48.72
43.28
37.67
29.94
19.09
6.18
-5.41
-11.65
-9.26
2.18
19.49
36.93
48.86
52.24
47.79
39.13
29.90
22.05
14.86
6.10
-5.98
-21.13
-37.20
-51.39
-61.84
-68.68
-73.25
-76.99
-80.43
-82.75
-81.53
-73.40
-54.90
-23.63
20.11
72.52
126.32
172.38
202.42
211.85
201.38
176.55
145.41
115.32
90.71
72.38
58.62
47.00
35.75
24.08
11.58
-2.43
-19.05
-39.13
-62.29
-86.70
-109.55
-128.41
-142.66
-153.89
-165.15
-179.34
-197.34
-217.26
-234.97
-245.77
-246.42
-236.37
-217.74
-193.84
-167.43
-139.53
-109.71
-77.43
-43.57
-10.85
17.21
38.04
51.46
59.92
67.28
77.05
90.85
107.75
124.65
137.29
141.84
136.16
120.76
98.89
75.70
56.42
44.60
40.90
43.31
48.67
54.42
59.58
64.46
69.45
73.77
74.98
69.64
54.39
26.88
-13.71
-66.33
-127.72
-191.99
-250.70
-294.05
-313.36
-304.09
-268.03
-213.32
-152.23
-97.32
-57.71
-36.61
-31.54
-36.51
-45.28
-53.92
-61.62
-69.41
-78.16
-87.00
-93.49
-95.37
-92.63
-88.24
-86.48
-90.12
-98.18
-106.18
-108.85
-103.45
-91.52
-77.98
-68.16
-64.90
-67.64
-73.68
-80.65
-88.22
-98.02
-111.89
-129.91
-149.49
-166.30
-176.30
-177.66
-171.65
-161.65
-151.17
-141.89
-132.99
-121.98
-106.54
-86.13
-62.20
-37.04
-12.18
12.55
38.82
68.35
101.70
138.05
176.01
214.62
253.45
291.62
326.45
353.00
365.25
358.56
332.05
289.40
237.52
183.75
133.51
89.34
51.57
19.97
-5.03
-22.06
-29.60
-27.34
-17.40
-4.66
4.24
3.01
-11.93
-39.62
-74.82
-110.07
-138.62
-156.79
-164.54
-164.28
-158.90
-150.53
-140.72
-131.37
-125.22
-125.03
-131.86
-143.79
-156.49
-165.03
-166.01
-158.83
-145.28
-128.27
-110.44
-93.69
-79.52
-69.27
-63.86
-63.09
-65.04
-66.33
-63.45
-54.33
-39.41
-21.53
-4.70
7.42
12.61
10.42
1.80
-11.38
-26.43
-39.87
-47.94
-47.62
-37.91
-20.89
-1.29
15.08
23.37
21.10
8.57
-12.03
-37.52
-64.33
-88.58
-106.08
-112.64
-105.18
-83.19
-49.84
-11.87
22.04
44.22
50.88
43.74
29.63
17.94
16.98
30.77
57.67
91.63
125.09
152.22
170.64
181.13
185.80
186.33
183.23
176.10
164.65
149.31
131.37
112.66
95.29
81.61
74.29
76.32
90.53
118.34
158.30
205.21
250.76
285.87
303.71
301.92
283.02
252.65
216.86
180.21
145.35
113.95
87.76
68.54
56.86
50.92
46.53
39.09
26.22
9.38
-6.74
-16.96
-18.74
-13.71
-6.59
-2.54
-4.41
-11.65
-21.28
-30.01
-36.18
-40.29
-44.10
-49.03
-54.93
-60.08
-62.11
-59.49
-52.43
-42.81
-33.21
-25.56
-20.27
-16.36
-12.34
-7.42
-2.15
1.83
2.70
-0.21
-5.82
-11.43
-13.99
-11.50
-3.93
6.89
18.38
28.58
36.76
43.42
49.39
55.13
60.48
64.97
68.27
70.23
70.71
69.09
64.27
55.18
41.50
24.18
5.35
-12.12
-25.47
-32.72
-33.18
-27.87
-19.58
-12.23
-9.60
-13.85
-24.53
-38.75
-52.74
-63.90
-72.20
-80.05
-90.54
-105.44
-123.81
-142.67
-158.52
-168.88
-172.94
-171.37
-165.84
-158.71
-152.78
-150.64
-154.24
-164.11
-178.56
-193.64
-204.44
-206.92
-199.48
-183.41
-161.69
-139.02
-121.11
-113.25
-118.49
-136.04
-160.99
-185.51
-201.51
-201.37
-182.73
-149.54
-109.77
-71.26
-39.00
-14.97
0.39
6.92
9.29
12.51
20.70
36.81
62.83
98.57
139.98
179.13
206.93
224.70
237.82
252.22
271.86
298.79
333.06
372.46
413.08
450.80
492.77
545.46
609.41
678.73
745.99
806.05
856.98
898.64
877.75
767.50
581.54
365.98
164.53
-1.94
-131.69
-230.35
-300.76
-352.47
-381.18
-383.42
-363.41
-332.96
-305.32
-290.45
-290.56
-302.49
-318.05
-320.03
-297.52
-252.20
-197.83
-145.36
-101.66
-69.02
-47.50
-37.31
-36.70
-45.40
-66.82
-102.12
-147.81
-196.80
-239.73
-267.52
-273.55
-253.28
-208.85
-149.66
-88.74
-37.52
-2.13
17.88
27.39
31.89
35.50
39.14
41.41
41.24
39.16
36.98
36.56
38.52
41.86
45.15
47.74
49.87
52.24
54.10
52.06
41.21
18.02
-17.69
-60.92
-103.53
-138.34
-161.84
-175.28
-182.25
-185.41
-184.31
-176.72
-162.55
-141.71
-117.82
-95.23
-76.23
-59.45
-41.47
-19.22
7.33
35.10
60.39
80.25
94.77
105.93
115.06
119.30
115.02
95.73
57.57
2.48
-61.66
-122.48
-167.93
-189.94
-187.70
-166.99
-137.82
-110.01
-89.78
-79.26
-77.08
-80.50
-87.03
-95.30
-104.51
-114.14
-123.16
-129.65
-132.43
-131.53
-128.49
-125.70
-124.99
-126.72
-129.28
-131.96
-132.56
-129.43
-122.15
-111.64
-99.59
-87.68
-76.80
-67.04
-57.76
-47.84
-36.59
-23.95
-10.29
4.05
19.00
34.86
52.14
71.16
92.15
114.77
138.29
161.90
184.99
207.21
228.61
249.62
270.90
293.24
316.69
340.01
360.54
374.67
379.08
372.09
354.53
329.42
300.94
272.81
247.21
224.80
205.31
188.26
173.42
160.61
149.33
138.63
127.35
114.59
100.24
85.02
70.04
56.33
44.31
33.70
23.78
13.90
3.88
-5.83
-14.31
-20.75
-24.89
-27.34
-29.34
-32.28
-37.13
-44.15
-53.01
-63.08
-73.82
-84.72
-95.34
-105.24
-114.15
-122.26
-130.23
-138.99
-149.04
-159.87
-169.80
-176.48
-178.01
-173.71
-164.50
-152.24
-138.75
-124.80
-110.07
-93.70
-75.30
-55.67
-36.63
-20.28
-8.02
0.10
5.34
9.49
14.02
19.44
25.21
30.30
33.72
35.11
34.81
33.67
32.54
31.97
31.99
32.29
32.42
32.07
31.20
29.93
28.47
26.96
25.54
24.33
23.44
23.02
23.10
23.62
24.40
25.16
25.58
25.39
24.32
22.17
18.86
14.56
9.74
5.10
1.44
-0.73
-1.41
-1.07
-0.55
-0.63
-1.74
-3.77
-6.24
-8.48
-9.98
-10.48
-9.95
-8.48
-6.24
-3.49
-0.59
2.01
3.94
5.05
5.52
5.73
6.03
6.55
7.07
7.23
6.70
5.43
3.69
1.91
0.42
-0.64
-1.34
-1.79
-2.02
-1.96
-1.51
-0.69
0.30
1.12
1.44
1.07
0.09
-1.27
-2.70
-3.91
-4.78
-5.27
-5.50
-5.63
-5.85
-6.25
-6.83
-7.46
-7.92
-8.08
-7.97
-7.68
-7.43
-7.32
-7.34
-7.36
-7.20
-6.80
-6.17
-5.46
-4.80
-4.28
-3.92
-3.71
-3.62
-3.65
-3.77
-3.87
-3.84
-3.56
-3.00
-2.25
-1.42
-0.56
0.37
1.53
3.01
4.74
6.48
7.91
8.76
8.98
8.66
8.06
7.36
6.66
5.97
5.31
4.72
4.27
4.08
4.25
4.84
5.95
7.63
9.87
12.48
15.07
17.09
18.05
17.72
16.18
13.94
11.73
10.40
10.60
12.70
16.57
21.61
26.88
31.45
34.71
36.65
37.75
38.71
39.96
41.46
42.73
43.09
42.00
39.34
35.38
30.62
25.74
21.48
18.47
17.15
17.47
18.90
20.59
21.77
22.01
21.37
20.11
18.37
16.08
13.03
9.27
5.27
1.80
-0.55
-1.75
-2.48
-3.71
-6.11
-9.64
-13.42
-16.18
-16.75
-14.44
-9.25
-1.76
7.02
15.81
23.37
28.78
31.84
33.13
33.81
35.05
37.40
40.51
43.27
44.32
42.68
38.06
30.77
21.43
10.55
-1.51
-14.44
-27.79
-41.05
-54.15
-67.98
-84.48
-106.18
-135.16
-171.86
-214.59
-260.05
-304.64
-345.70
-382.02
-413.09
-437.87
-453.75
-456.79
-443.20
-411.20
-362.33
-301.32
-234.62
-168.51
-107.79
-55.44
-13.30
17.49
36.47
44.58
44.75
41.64
40.32
44.27
53.93
66.63
77.86
83.54
81.93
74.27
64.15
56.17
54.44
61.69
78.77
104.58
136.17
169.02
197.99
218.44
227.57
225.15
213.48
196.38
177.92
161.26
148.20
139.42
134.79
133.75
135.35
138.16
140.37
140.12
136.10
127.95
116.36
102.74
88.73
75.75
64.86
56.70
51.58
49.30
49.04
49.56
49.47
47.89
44.64
40.27
35.46
30.38
24.37
16.10
4.48
-10.51
-27.39
-43.46
-55.91
-62.99
-64.74
-62.81
-59.51
-56.63
-54.62
-52.70
-49.62
-44.64
-38.11
-31.23
-25.27
-20.92
-17.90
-15.47
-13.03
-10.52
-8.44
-7.39
-7.66
-9.04
-10.95
-12.71
-13.73
-13.69
-12.57
-10.76
-8.96
-8.00
-8.43
-10.10
-12.16
-13.39
-12.90
-10.63
-7.45
-4.70
-3.43
-3.99
-5.92
-8.31
-10.31
-11.41
-11.42
-10.44
-8.63
-6.14
-3.15
0.02
2.95
5.19
6.53
7.28
8.45
11.40
17.28
26.30
37.28
47.86
55.44
58.22
55.93
49.88
42.11
34.45
27.92
22.58
18.09
14.18
10.92
8.54
7.07
6.19
5.14
3.20
0.01
-4.20
-8.62
-12.22
-14.26
-14.55
-13.65
-12.54
-12.19
-13.05
-14.83
-16.57
-16.93
-14.80
-9.71
-2.18
6.38
14.08
19.24
20.97
19.62
16.59
13.85
13.14
15.36
20.28
26.68
32.77
36.75
37.22
33.52
25.81
15.04
2.66
-9.74
-20.90
-30.21
-37.56
-43.06
-46.71
-48.05
-46.27
-40.55
-30.45
-16.38
0.34
17.67
33.34
45.33
52.36
54.10
51.15
44.76
36.51
27.92
20.15
13.85
9.13
5.72
3.10
0.73
-1.83
-4.83
-8.41
-12.69
-17.79
-23.74
-30.34
-37.10
-43.29
-48.15
-51.15
-52.15
-51.38
-49.28
-46.16
-42.20
-37.26
-31.21
-24.05
-16.11
-7.96
-0.28
6.36
11.61
15.31
17.44
18.10
17.63
16.62
15.86
16.05
17.44
19.68
21.81
22.62
21.09
16.64
9.35
-0.25
-11.21
-22.33
-32.22
-39.46
-42.91
-42.02
-37.06
-29.08
-19.64
-10.39
-2.61
2.92
6.03
7.04
6.56
5.38
4.31
3.97
4.70
6.46
8.86
11.35
13.44
14.87
15.62
15.91
15.99
16.05
16.16
16.22
16.15
15.83
15.23
14.37
13.33
12.18
10.92
9.54
7.99
6.31
4.59
2.98
1.58
0.42
-0.61
-1.68
-2.89
-4.28
-5.74
-7.13
-8.32
-9.34
-10.22
-11.05
-11.88
-12.76
-13.75
-14.89
-16.19
-17.55
-18.79
-19.71
-20.17
-20.18
-19.85
-19.33
-18.64
-17.74
-16.52
-14.96
-13.18
-11.46
-10.14
-9.52
-9.70
-10.60
-11.92
-13.27
-14.33
-14.87
-14.93
-14.68
-14.27
-13.78
-13.07
-11.92
-10.17
-7.92
-5.48
-3.30
-1.77
-1.04
-1.02
-1.46
-2.08
-2.63
-2.96
-2.97
-2.65
-2.02
-1.24
-0.50
-0.04
-0.02
-0.50
-1.43
-2.62
-3.79
-4.65
-5.01
-4.86
-4.45
-4.11
-4.16
-4.65
-5.35
-5.81
-5.72
-4.93
-3.71
-2.43
-1.41
-0.74
-0.31
0.02
0.30
0.46
0.40
0.14
-0.17
-0.38
-0.42
-0.39
-0.48
-0.81
-1.39
-2.08
-2.72
-3.20
-3.50
-3.61
-3.45
-2.93
-1.95
-0.56
1.07
2.71
4.18
5.41
6.46
7.46
8.51
9.62
10.71
11.62
12.17
12.17
11.55
10.31
8.63
6.79
5.12
3.89
3.20
2.96
2.89
2.72
2.20
1.29
0.06
-1.28
-2.54
-3.57
-4.31
-4.73
-4.84
-4.69
-4.36
-3.99
-3.72
-3.68
-3.95
-4.49
-5.24
-6.13
-7.15
-8.25
-9.34
-10.27
-10.76
-10.63
-9.88
-8.71
-7.48
-6.47
-5.71
-5.04
-4.21
-3.10
-1.87
-0.85
-0.36
-0.49
-0.99
-1.31
-1.00
0.19
2.12
4.38
6.55
8.30
9.52
10.28
10.70
10.91
10.97
10.84
10.42
9.69
8.68
7.58
6.70
6.29
6.47
7.11
7.89
8.39
8.39
7.92
7.25
6.78
6.76
7.19
7.80
8.27
8.25
7.61
6.39
4.75
2.99
1.35
0.03
-0.92
-1.62
-2.28
-3.07
-4.02
-4.95
-5.49
-5.37
-4.58
-3.36
-2.19
-1.50
-1.43
-1.82
-2.24
-2.26
-1.59
-0.20
1.70
3.69
5.17
5.46
3.79
-0.39
-7.20
-16.07
-25.75
-34.50
-40.69
-43.28
-42.15
-38.13
-32.60
-26.89
-21.91
-17.90
-14.64
-11.75
-9.00
-6.46
-4.38
-2.99
-2.27
-1.89
-1.45
-0.61
0.62
1.89
2.71
2.66
1.64
-0.11
-2.11
-3.84
-4.90
-5.10
-4.49
-3.22
-1.52
0.47
2.69
5.25
8.30
11.80
15.44
18.61
20.73
21.51
21.26
20.70
20.61
21.29
22.38
23.02
22.33
20.00
16.43
12.65
9.68
8.10
7.90
8.54
9.44
10.23
10.94
11.65
12.15
11.80
9.63
4.87
-2.62
-12.01
-21.76
-30.17
-36.05
-39.03
-39.55
-38.37
-36.14
-33.19
-29.64
-25.65
-21.64
-18.18
-15.86
-14.88
-14.95
-15.25
-14.76
-12.50
-7.95
-1.35
6.46
14.18
20.59
24.94
27.15
27.70
27.27
26.50
25.76
25.27
25.22
25.88
27.52
30.17
33.57
37.13
40.18
42.23
43.01
42.49
40.74
38.00
34.66
31.54
29.73
30.26
33.53
38.77
43.99
46.45
43.51
33.49
16.18
-7.04
-33.47
-59.55
-81.29
-94.94
-97.65
-88.17
-67.30
-37.76
-3.58
30.91
62.01
87.19
105.13
115.45
118.21
113.53
101.33
81.34
53.18
16.72
-27.50
-77.86
-131.52
-184.51
-232.14
-269.73
-293.34
-300.55
-291.08
-266.79
-231.35
-189.25
-144.82
-101.57
-61.98
-27.80
-0.41
19.13
30.37
33.88
31.42
25.60
19.22
14.48
12.43
13.10
