1630937862.00
64.000000
-0.00
-0.00
-0.00
-0.00
-0.00
-0.00
-0.00
-0.00
-0.00
-0.00
0.00
0.01
0.01
-0.00
-0.03
-0.05
-0.05
0.00
0.13
0.36
0.66
1.01
1.37
1.72
2.06
2.40
2.79
3.24
3.80
4.42
5.06
5.66
6.20
6.68
7.16
7.69
8.34
9.19
10.17
11.16
12.05
12.80
13.45
14.18
15.19
16.63
18.73
21.30
24.05
26.70
29.08
31.26
33.55
36.40
40.10
45.06
50.90
57.11
63.11
68.53
73.45
78.35
83.94
90.74
99.29
109.08
119.32
129.12
137.90
145.72
153.23
161.74
169.95
180.14
192.88
208.28
225.13
240.51
250.12
249.33
234.79
205.59
164.12
114.19
60.14
5.18
-49.16
-102.55
-155.08
-206.44
-255.81
-301.72
-343.30
-379.87
-410.93
-435.73
-452.98
-461.12
-458.72
-445.10
-420.42
-386.24
-344.89
-299.01
-251.88
-205.75
-161.98
-121.20
-83.64
-49.34
-18.55
8.47
31.52
50.67
66.36
79.25
90.05
99.36
107.68
115.15
121.77
127.46
132.12
135.81
138.58
140.39
141.09
140.82
139.46
136.84
132.76
127.15
120.02
111.46
101.62
90.70
78.89
66.38
53.51
40.62
28.14
16.57
6.44
-1.76
-7.61
-10.77
-11.16
-8.85
-4.04
2.82
11.18
20.40
29.81
38.71
46.51
52.74
57.05
59.24
59.29
57.29
53.48
48.15
41.74
34.75
27.69
21.04
15.31
10.89
8.15
7.18
7.95
10.19
13.45
17.11
20.54
23.01
23.92
22.81
19.48
13.98
6.61
-2.10
-11.48
-20.79
-29.24
-36.18
-41.12
-43.77
-44.12
-42.35
-38.77
-33.78
-27.79
-21.17
-14.15
-6.92
0.53
8.25
16.37
24.87
33.69
42.58
51.14
58.86
65.19
69.56
71.54
70.82
67.34
61.27
52.96
43.05
32.18
21.05
10.35
0.61
-7.74
-14.46
-19.45
-22.71
-24.38
-24.66
-23.74
-21.97
-19.64
-17.11
-14.67
-12.67
-11.40
-11.11
-11.96
-14.06
-17.34
-21.61
-26.59
-31.92
-37.15
-41.80
-45.43
-47.58
-47.84
-45.88
-41.49
-34.52
-24.90
-12.70
1.88
18.55
36.88
56.29
76.15
95.80
114.52
131.57
146.34
158.35
167.26
172.89
175.24
174.47
170.85
164.78
156.83
147.48
137.29
126.83
116.54
106.89
98.23
90.78
84.62
79.68
75.81
72.79
70.43
68.53
66.99
65.78
64.90
64.18
63.42
62.27
60.32
57.31
53.10
47.70
41.27
33.92
25.90
17.27
7.99
-1.88
-12.29
-23.04
-33.66
-43.68
-52.68
-60.58
-67.95
-75.89
-85.70
-98.54
-114.96
-134.39
-155.55
-176.60
-196.02
-213.45
-230.28
-249.43
-273.47
-303.28
-336.20
-366.16
-385.92
-390.17
-378.12
-353.56
-322.75
-291.61
-263.39
-239.53
-221.36
-210.76
-209.27
-215.87
-225.50
-230.37
-223.75
-204.44
-178.22
-155.07
-143.37
-144.51
-151.96
-154.72
-144.16
-118.93
-85.11
-52.25
-27.97
-13.79
-5.64
2.55
13.93
26.74
35.58
35.70
26.38
12.47
1.88
0.61
10.05
25.93
40.73
47.38
42.64
28.37
10.25
-4.68
-10.87
-6.82
4.18
15.49
19.78
12.42
-6.39
-31.96
-57.59
-78.29
-92.80
-102.97
-111.45
-119.08
-124.32
-124.59
-119.06
-109.58
-100.07
-94.23
-93.56
-96.52
-99.08
-96.52
-84.96
-62.22
-28.05
15.82
66.25
119.87
173.73
225.91
275.06
318.39
351.32
368.63
367.31
348.13
316.41
279.12
240.64
200.89
153.57
91.01
9.98
-86.18
-187.73
-281.86
-358.06
-410.77
-439.54
-450.92
-452.85
-452.32
-454.82
-463.77
-480.30
-503.58
-530.51
-556.60
-581.48
-606.08
-632.36
-662.00
-695.07
-729.09
-760.39
-785.20
-774.68
-709.77
-582.33
-399.71
-183.49
39.46
247.00
425.20
569.10
678.86
753.03
792.13
798.54
777.46
736.44
684.38
629.51
580.13
543.50
521.93
514.99
518.50
525.59
528.95
523.44
507.20
482.93
455.35
426.81
397.74
366.64
331.89
293.51
255.97
220.67
189.18
161.67
135.98
110.05
82.40
53.18
24.13
-2.33
-24.65
-41.87
-54.32
-63.59
-70.55
-75.87
-79.78
-82.35
-83.92
-85.52
-87.65
-90.58
-93.62
-93.96
-88.53
-74.91
-52.19
-21.29
15.48
56.23
99.81
139.05
170.84
194.41
210.98
223.00
232.59
239.86
242.73
235.84
213.03
171.26
112.35
44.11
-20.66
-68.31
-89.46
-81.31
-51.37
-11.19
27.98
57.69
73.87
76.59
68.15
47.52
19.13
-13.29
-46.42
-76.76
-100.83
-116.26
-122.62
-121.99
-118.17
-114.34
-113.22
-115.16
-118.38
-120.31
-119.11
-114.41
-107.59
-101.05
-96.29
-94.42
-94.75
-95.68
-94.97
-90.66
-81.73
-67.32
-47.68
-24.09
0.52
22.79
40.16
52.20
59.64
64.91
69.69
73.36
73.36
67.15
54.27
36.45
17.11
-0.22
-12.85
-18.75
-16.41
-4.74
15.68
41.87
68.75
90.94
104.84
109.33
105.46
94.51
77.38
55.01
29.27
3.44
-18.93
-35.67
-47.21
-55.31
-60.89
-62.41
-56.17
-39.11
-11.79
20.12
46.79
58.67
50.73
25.80
-6.69
-34.98
-50.64
-51.43
-41.84
-29.56
-20.89
-17.56
-17.10
-15.97
-12.68
-9.16
-8.66
-12.55
-18.86
-23.29
-22.70
-18.23
-15.17
-19.05
-31.21
-46.27
-54.73
-48.72
-27.52
1.35
26.03
36.60
30.62
14.04
-3.32
-13.75
-15.13
-10.63
-5.59
-3.43
-3.97
-4.34
-1.73
4.42
11.97
17.67
19.12
15.77
9.31
2.63
-1.68
-2.39
-0.05
3.50
6.12
6.47
4.35
0.69
-3.13
-6.01
-7.52
-8.02
-8.18
-8.51
-9.15
-9.93
-10.62
-11.27
-12.23
-13.96
-16.67
-19.96
-22.93
-24.67
-24.59
-22.90
-20.54
-18.77
-18.71
-21.17
-26.37
-33.72
-41.29
-45.75
-43.13
-30.27
-6.73
24.31
56.93
84.73
103.52
112.87
115.63
115.60
115.30
114.84
112.98
107.79
99.09
88.39
77.96
69.53
63.47
59.02
54.82
48.47
38.11
21.57
-2.20
-32.58
-66.04
-97.10
-120.11
-131.45
-130.89
-121.14
-105.74
-88.80
-72.13
-55.83
-39.87
-25.00
-12.96
-5.43
-2.83
-3.95
-6.46
-7.80
-6.32
-2.23
2.91
6.97
8.37
6.84
3.45
0.06
-1.45
-0.12
3.52
7.87
10.99
11.59
9.58
6.09
2.96
1.75
3.17
6.63
10.62
13.51
13.90
10.90
4.03
-6.36
-18.75
-30.15
-36.74
-35.25
-24.65
-7.24
12.06
27.28
34.48
33.18
26.02
16.99
9.28
4.02
0.52
-2.41
-5.34
-7.69
-8.48
-7.19
-4.29
-1.07
1.12
1.31
-0.35
-2.91
-5.10
-5.91
-5.04
-2.97
-0.65
0.92
1.17
0.20
-1.41
-2.83
-3.42
-3.00
-1.83
-0.49
0.48
0.73
0.31
-0.46
-1.18
-1.50
-1.35
-0.84
-0.23
0.24
0.40
0.28
0.01
-0.26
-0.41
-0.40
-0.28
-0.14
-0.04
-0.01
-0.03
-0.04
-0.00
0.11
0.26
0.39
0.45
0.41
0.27
0.10
-0.02
-0.05
0.02
0.16
0.27
0.28
0.16
-0.08
-0.31
-0.41
-0.28
0.06
0.47
0.75
0.67
0.18
-0.61
-1.38
-1.76
-1.52
-0.67
0.45
1.31
1.39
0.49
-1.15
-2.84
-3.79
-3.43
-1.77
0.52
2.35
2.72
1.19
-1.73
-4.82
-6.61
-6.17
-3.57
0.03
2.80
3.32
1.00
-3.38
-8.13
-11.37
-11.81
-8.88
-2.55
6.65
17.40
27.32
33.18
31.81
21.72
4.39
-15.87
-33.26
-43.04
-43.68
-37.00
-26.33
-14.69
-3.27
8.15
19.78
30.64
38.22
39.47
32.24
16.90
-3.32
-22.84
-35.17
-35.54
-22.93
-1.07
23.14
41.53
48.89
44.80
33.26
20.33
11.34
8.88
12.34
18.81
24.21
24.79
18.03
3.49
-16.63
-37.92
-55.00
-63.89
-62.89
-54.04
-41.28
-28.30
-17.25
-8.51
-1.99
2.02
2.48
-1.54
-9.89
-20.65
-30.78
-37.36
-38.55
-34.20
-26.11
-16.80
-8.46
-2.33
1.70
4.60
7.55
11.26
15.65
19.90
23.04
24.27
23.43
21.06
18.18
15.79
14.46
14.27
14.72
15.18
15.09
14.22
12.78
11.23
10.06
9.60
9.79
10.24
10.49
10.17
9.21
7.91
6.81
6.41
6.91
8.12
9.44
10.18
9.91
8.63
6.93
5.69
5.67
7.16
9.74
12.42
14.12
14.11
12.43
9.98
8.16
7.97
9.74
12.84
15.91
17.45
16.20
11.20
1.93
-11.45
-27.54
-43.33
-54.62
-57.41
-49.84
-33.20
-12.65
5.66
17.10
20.33
17.34
11.78
6.70
3.26
0.82
-1.75
-4.67
-7.00
-7.42
-5.25
-1.12
3.23
5.95
5.87
3.32
-0.40
-3.51
-4.68
-3.61
-0.78
2.80
6.23
8.62
8.67
5.70
-0.26
-7.69
-14.21
-17.54
-17.15
-15.12
-14.76
-18.82
-27.36
-37.77
-46.07
-49.11
-46.24
-39.10
-30.16
-21.17
-12.74
-4.97
1.40
4.75
3.51
-2.24
-10.54
-18.00
-21.52
-19.74
-13.28
-4.40
4.51
11.95
17.02
19.68
20.22
19.16
16.94
14.31
12.16
10.88
10.39
10.01
8.90
6.48
2.82
-1.19
-4.41
-5.95
-5.79
-4.85
-4.66
-6.55
-10.94
-16.97
-22.84
-26.62
-27.48
-25.86
-23.53
-22.65
-24.42
-29.00
-35.64
-43.33
-51.22
-58.14
-61.61
-58.05
-44.56
-21.56
5.79
29.12
40.89
38.72
27.14
15.22
11.37
18.60
33.25
47.81
55.83
55.59
50.23
44.91
42.99
44.25
45.74
44.41
39.09
31.35
24.15
19.92
19.65
22.31
25.50
26.96
25.41
21.12
15.58
10.76
8.14
8.10
9.87
11.98
13.08
12.45
10.29
7.47
5.05
3.76
3.80
4.76
5.99
6.90
7.22
7.01
6.56
6.17
6.04
6.25
6.76
7.56
8.63
9.97
11.51
13.08
14.45
15.42
16.02
16.47
17.18
18.43
20.33
22.67
24.97
26.76
27.91
28.55
28.91
29.58
30.74
32.63
35.64
40.18
46.17
52.44
56.68
56.21
49.24
35.79
17.88
-1.39
-19.18
-33.85
-45.16
-53.45
-58.96
-61.44
-60.57
-56.69
-51.02
-45.32
-41.07
-38.82
-37.96
-37.31
-35.82
-33.10
-29.27
-25.13
-21.79
-19.78
-19.22
-19.49
-19.62
-18.60
-15.96
-12.01
-7.84
-4.65
-3.33
-4.05
-6.16
-8.68
-10.83
-12.32
-13.73
-16.14
-20.54
-27.54
-37.34
-49.61
-63.80
-78.10
-89.28
-93.33
-86.87
-69.01
-42.45
-12.97
13.09
30.90
39.24
40.24
37.68
34.76
32.78
31.22
29.03
25.88
22.42
20.01
19.61
21.16
23.64
25.69
26.10
24.52
21.54
18.20
15.78
15.11
16.36
18.96
21.88
23.98
24.54
23.43
21.18
18.84
17.55
18.10
20.59
24.35
28.22
30.93
31.89
31.04
29.16
27.40
26.69
27.56
30.22
34.75
40.89
47.42
51.70
50.11
39.52
19.07
-8.66
-38.13
-62.79
-77.75
-81.73
-77.07
-67.94
-58.07
-49.26
-41.41
-33.72
-25.83
-18.32
-12.18
-7.68
-4.65
-1.79
2.29
8.60
16.91
26.06
34.51
40.93
44.65
45.82
45.13
43.52
41.60
39.29
36.11
31.40
24.83
16.52
7.39
-1.74
-9.86
-16.21
-20.62
-23.29
-24.65
-25.19
-25.24
-24.96
-24.36
-23.57
-22.38
-20.90
-19.30
-17.77
-16.42
-15.32
-14.39
-13.58
-12.79
-11.94
-11.05
-10.16
-9.32
-8.56
-7.91
-7.36
-6.89
-6.43
-5.92
-5.35
-4.76
-4.19
-3.69
-3.33
-3.09
-2.94
-2.79
-2.56
-2.23
-1.86
-1.52
-1.34
-1.40
-1.68
-2.09
-2.45
-2.59
-2.46
-2.15
-1.91
-2.03
-2.72
-3.96
-5.48
-6.85
-7.65
-7.74
-7.32
-6.95
-7.26
-8.70
-11.25
-14.36
-17.21
-18.99
-19.40
-18.83
-18.20
-18.63
-20.87
-24.89
-29.86
-34.45
-37.60
-38.83
-38.53
-37.78
-37.74
-39.31
-43.14
-49.58
-58.41
-68.25
-76.19
-78.15
-70.33
-51.26
-23.10
8.60
37.00
56.72
65.91
66.43
62.17
56.79
52.11
48.01
43.58
38.42
33.21
29.22
27.28
27.21
27.78
27.55
25.36
21.11
15.65
10.31
6.23
3.91
2.97
2.46
1.28
-1.26
-5.24
-10.09
-15.00
-19.22
-22.45
-24.90
-27.17
-29.82
-33.25
-37.53
-42.37
-47.39
-52.20
-56.69
-60.94
-65.25
-69.78
-74.61
-79.66
-84.64
-89.02
-92.28
-93.83
-93.14
-89.75
-83.21
-73.09
-59.23
-41.84
-21.42
1.19
24.95
48.72
70.71
90.07
106.17
118.57
127.11
131.96
133.55
132.50
130.04
126.50
122.49
118.44
114.58
110.99
107.68
104.64
101.92
99.57
97.58
96.15
95.29
94.84
94.41
93.63
92.10
90.02
86.98
82.75
77.30
70.51
62.11
51.79
39.44
25.29
9.61
-5.85
-19.59
-30.39
-37.73
-41.84
-43.60
-44.04
-43.94
-43.43
-41.94
-38.66
-32.99
-24.99
-15.61
-6.35
1.47
7.10
10.76
13.57
16.74
21.33
28.15
37.69
49.86
63.35
75.11
80.65
75.45
57.10
27.08
-9.09
-43.82
-70.44
-85.67
-90.47
-88.50
-83.94
-79.44
-75.62
-71.93
-67.99
-64.33
-62.04
-61.97
-63.91
-66.76
-69.20
-70.23
-69.85
-68.92
-68.61
-69.81
-72.70
-76.57
-80.56
-83.88
-86.36
-88.20
-89.76
-91.13
-91.69
-90.74
-86.48
-77.62
-63.76
-45.54
-24.11
-0.73
23.81
49.13
74.95
100.57
124.46
144.35
157.66
162.17
156.35
139.46
111.92
75.97
36.26
-0.66
-26.65
-36.66
-30.21
-11.88
10.50
28.99
38.58
38.70
32.32
23.50
14.87
7.12
-0.43
-8.32
-16.24
-23.05
-27.49
-29.34
-29.57
-30.08
-32.43
-37.48
-44.36
-51.24
-56.18
-57.81
-55.79
-50.93
-44.64
-38.42
-33.18
-29.07
-25.73
-22.58
-19.50
-16.83
-15.38
-16.22
-20.26
-28.02
-39.44
-54.20
-71.89
-92.08
-114.34
-138.48
-164.14
-190.55
-216.39
-240.04
-259.42
-272.36
-277.51
-273.37
-259.33
-235.21
-201.78
-160.64
-113.92
-64.37
-14.88
31.79
73.32
107.93
134.21
151.70
160.50
161.30
155.23
143.87
129.00
112.52
96.19
81.44
69.29
60.37
54.81
52.64
53.49
56.64
61.60
67.52
73.36
78.17
80.79
80.45
76.26
67.94
55.81
40.81
24.27
7.89
-6.93
-19.22
-28.67
-35.38
-39.75
-42.27
-43.22
-42.76
-41.34
-39.67
-39.15
-41.31
-47.32
-57.57
-71.18
-85.97
-99.24
-108.74
-113.37
-113.88
-112.13
-110.24
-109.38
-109.24
-108.08
-102.96
-91.29
-71.63
-44.11
-10.02
28.01
66.95
103.14
133.46
156.32
172.68
186.49
202.89
225.38
252.92
278.74
293.05
287.62
260.54
217.91
171.93
135.46
116.47
115.52
126.68
141.22
151.27
152.02
141.56
120.65
92.00
60.57
33.06
16.35
14.13
24.87
41.89
55.56
58.08
46.99
25.69
1.18
-20.15
-34.76
-42.58
-44.93
-42.13
-33.26
-17.25
5.13
30.40
52.90
67.95
74.45
75.04
74.17
74.52
74.14
66.73
45.61
8.54
-40.10
-89.92
-129.98
-153.93
-162.28
-160.94
-156.22
-150.57
-142.28
-128.40
-107.95
-84.35
-63.09
-48.84
-42.60
-40.78
-38.15
-30.59
-17.33
-1.13
13.97
24.90
30.76
32.63
33.26
35.22
40.45
49.58
61.57
73.90
82.42
82.93
71.71
47.70
12.81
-27.42
-64.61
-90.05
-97.45
-85.47
-58.72
-26.18
2.90
22.01
30.32
31.79
31.80
33.59
35.99
34.85
26.59
11.69
-4.64
-15.31
-15.00
-4.27
11.59
25.04
30.61
27.19
18.00
8.11
2.04
2.34
8.70
19.35
30.38
36.77
33.56
17.46
-10.51
-44.80
-76.47
-97.36
-102.63
-93.08
-73.40
-50.05
-27.98
-9.66
4.56
15.15
21.71
22.98
18.10
7.77
-4.32
-12.77
-12.51
-2.04
15.24
31.66
39.22
33.25
15.50
-6.76
-24.57
-31.98
-29.34
-22.02
-16.82
-17.55
-23.29
-29.91
-33.12
-31.65
-27.73
-25.55
-28.19
-35.61
-44.43
-49.17
-45.09
-30.72
-7.93
18.44
43.11
62.68
77.29
89.99
105.86
129.34
161.69
200.92
242.82
282.53
316.17
341.14
356.17
360.43
354.92
339.85
315.23
281.82
241.16
195.76
148.59
102.70
60.77
24.81
-4.33
-26.80
-43.01
-53.69
-59.87
-62.59
-62.68
-60.64
-56.60
-51.00
-44.46
-38.15
-34.24
-35.60
-45.57
-66.78
-100.43
-145.07
-196.90
-249.70
-296.00
-328.82
-343.16
-337.42
-314.04
-279.39
-241.80
-208.88
-184.59
-168.58
-157.22
-146.04
-132.37
-116.61
-101.10
-89.37
-83.98
-85.38
-92.59
-104.14
-119.03
-136.67
-156.09
-175.35
-192.08
-204.58
-211.61
-212.99
-209.75
-203.31
-195.14
-185.98
-175.65
-163.12
-146.39
-123.24
-91.99
-53.55
-12.57
23.89
49.30
60.80
60.58
54.74
49.35
47.23
47.44
47.06
45.28
45.27
53.22
74.95
111.67
158.36
205.58
243.57
266.01
271.23
260.59
235.85
198.98
153.05
103.36
58.06
26.25
14.61
24.66
51.73
86.48
118.89
141.62
152.04
151.78
144.75
134.38
122.71
110.18
96.62
82.43
68.43
56.07
46.45
39.36
32.79
23.39
8.21
-13.61
-40.22
-67.36
-89.94
-104.31
-109.59
-107.68
-101.69
-94.21
-85.99
-76.53
-64.90
-51.48
-38.59
-30.20
-30.14
-40.98
-62.59
-91.93
-123.91
-151.79
-168.94
-170.77
-156.37
-129.37
-96.89
-66.64
-43.57
-27.77
-14.63
1.77
25.06
54.26
83.99
107.27
119.29
119.38
110.55
97.21
82.24
66.23
48.64
29.77
11.79
-1.24
-5.75
-1.33
9.09
19.74
25.71
25.73
22.80
22.46
29.38
44.14
62.60
77.83
83.88
79.07
66.65
52.57
41.73
34.93
28.51
16.65
-4.92
-36.55
-74.58
-112.25
-142.66
-161.01
-165.46
-157.14
-140.39
-121.02
-104.75
-95.36
-93.41
-96.34
-99.42
-98.42
-91.19
-77.78
-59.25
-35.91
-6.91
29.40
73.53
122.72
170.78
209.69
232.24
234.93
219.68
192.45
161.09
132.23
109.34
92.51
79.97
70.17
62.99
59.60
61.39
69.00
81.41
96.04
109.53
118.70
121.15
115.28
101.22
80.72
56.64
32.37
10.84
-6.16
-18.74
-28.39
-37.37
-47.84
-60.96
-76.65
-93.80
-110.54
-125.00
-135.83
-142.17
-143.89
-141.30
-135.14
-126.36
-115.69
-103.72
-90.57
-76.23
-60.38
-42.66
-23.59
-4.38
12.52
24.53
29.44
27.47
21.31
16.00
16.72
26.67
45.83
70.83
96.34
117.63
131.71
137.86
137.51
132.66
125.39
117.18
108.69
99.41
87.56
70.37
45.02
10.50
-30.87
-73.50
-109.30
-130.91
-134.45
-120.58
-94.55
-63.86
-35.74
-15.28
-5.28
-6.10
-16.94
-35.47
-58.47
-81.28
-97.92
-102.31
-91.38
-66.23
-32.34
2.15
30.33
49.09
60.68
71.20
86.93
111.14
141.79
173.93
201.20
218.26
222.13
212.00
188.43
153.05
108.06
57.78
8.00
-35.20
-67.18
-86.18
-93.81
-94.18
-92.50
-92.87
-97.09
-104.29
-111.62
-115.72
-114.35
-108.49
-101.94
-100.00
-105.80
-117.98
-130.47
-135.33
-127.12
-105.08
-73.65
-39.28
-7.87
16.74
32.03
35.42
23.88
-3.08
-40.83
-79.14
-105.46
-110.43
-91.91
-55.32
-10.61
32.07
64.66
81.70
80.25
60.87
28.65
-6.84
-33.66
-43.12
-33.56
-11.82
10.68
23.96
24.58
16.58
7.76
4.48
7.98
14.96
19.96
18.72
10.10
-3.88
-20.05
-35.80
-49.92
-62.61
-74.05
-83.53
-88.78
-86.75
-74.99
-53.09
-23.13
10.60
42.43
67.22
81.57
83.97
75.32
58.11
35.13
9.70
-14.60
-34.70
-47.49
-50.22
-41.54
-23.13
-1.07
15.32
17.37
1.67
-27.47
-58.78
-79.60
-82.90
-71.22
-55.24
-47.62
-55.71
-77.72
-104.34
-124.26
-130.45
-122.57
-105.06
-83.56
-61.29
-38.32
-13.90
11.41
35.39
55.19
69.89
81.55
94.20
111.53
134.04
158.17
178.16
188.21
185.19
170.19
147.81
123.63
102.55
87.41
77.95
72.21
67.64
61.93
54.31
45.33
35.87
27.37
20.74
15.92
12.70
9.88
5.61
-1.80
-13.62
-29.80
-48.47
-66.38
-79.34
-84.55
-82.10
-75.83
-72.07
-76.65
-91.40
-112.79
-132.71
-141.78
-133.07
-105.22
-62.18
-10.68
41.24
86.26
118.46
133.86
131.30
113.83
88.34
64.20
50.00
50.10
63.50
84.65
105.95
120.68
124.69
116.80
98.27
71.85
41.21
10.25
-17.57
-39.96
-56.06
-66.09
-71.16
-72.77
-72.17
-70.00
-65.07
-55.20
-37.69
-10.57
26.00
69.14
113.50
153.22
183.52
201.78
208.20
204.96
194.81
180.00
161.42
138.91
111.50
77.72
36.76
-11.21
-64.34
-118.12
-165.18
-196.92
-206.31
-191.71
-159.20
-121.27
-92.04
-81.46
-90.59
-111.65
-132.60
-142.93
-138.27
-120.88
-96.76
-71.91
-49.95
-33.04
-23.81
-25.85
-41.76
-71.14
-108.56
-145.57
-173.94
-189.82
-194.45
-192.27
-187.62
-181.52
-172.06
-156.79
-135.19
-109.39
-83.40
-60.13
-40.07
-21.71
-2.61
18.75
42.76
69.59
99.22
131.40
165.26
198.36
226.93
246.12
251.63
241.08
214.57
174.24
124.00
68.21
11.33
-42.90
-90.74
-128.62
-153.11
-161.15
-150.99
-122.63
-77.69
-20.21
43.26
104.04
152.12
178.39
177.75
151.35
106.80
56.13
10.95
-21.64
-40.08
-47.92
-50.18
-50.52
-49.79
-47.15
-41.66
-33.90
-25.85
-19.94
-17.89
-20.35
-26.87
-36.16
-46.40
-54.95
-58.31
-53.55
-39.78
-19.91
0.24
14.65
20.97
22.45
27.04
42.13
69.15
100.82
123.72
125.53
102.44
62.00
20.57
-4.63
-3.78
21.06
57.42
88.88
102.15
92.57
64.36
26.68
-10.90
-42.55
-66.88
-85.00
-97.72
-103.35
-98.32
-79.51
-47.62
-7.76
32.17
65.95
92.74
117.35
147.27
186.58
232.48
275.01
301.46
303.04
279.40
239.24
195.43
158.43
132.07
112.90
93.76
68.71
34.90
-7.14
-54.88
-105.72
-157.76
-208.96
-256.75
-297.91
-329.36
-348.62
-354.47
-346.71
-326.89
-298.64
-267.93
-242.29
-228.24
-228.54
-240.16
-254.47
-260.59
-249.28
-216.21
-162.45
-93.61
-16.76
61.54
135.70
200.53
250.93
283.78
299.06
300.49
294.98
290.41
292.48
302.01
314.93
322.98
318.82
298.61
263.24
217.17
166.16
114.96
66.27
21.28
-19.60
-55.58
-86.01
-110.63
-129.99
-145.12
-157.05
-166.49
-173.49
-178.13
-179.51
-176.92
-170.47
-161.18
-151.11
-142.72
-137.82
-137.92
-143.91
-155.46
-171.65
-191.44
-213.85
-238.33
-264.60
-292.55
-321.92
-351.74
-380.25
-404.48
-420.71
-424.95
-413.49
-384.12
-336.47
-272.01
-194.11
-107.71
-18.13
69.87
152.60
228.31
296.56
357.11
408.31
446.85
469.02
472.12
456.44
425.85
386.80
346.37
310.52
283.15
265.75
258.16
258.45
262.24
262.74
252.19
224.72
179.04
119.67
55.80
-2.10
-45.87
-71.21
-76.96
-63.60
-31.88
16.50
77.52
142.96
201.33
241.48
257.20
249.96
227.94
202.70
182.67
170.46
161.65
147.77
121.23
79.58
27.62
-25.45
-70.07
-99.90
-113.86
-114.86
-107.97
-97.70
-86.50
-75.78
-66.56
-60.49
-60.03
-67.23
-83.02
-107.34
-139.63
-178.47
-221.41
-264.00
-299.71
-321.38
-323.67
-305.58
-271.34
-228.41
-185.05
-147.28
-117.95
-97.57
-85.29
-80.58
-82.67
-89.27
-95.96
-96.37
-84.97
-59.79
-24.34
13.47
44.08
60.93
63.73
58.73
55.77
64.28
89.74
131.38
183.20
236.41
282.45
315.03
331.66
334.10
327.80
320.18
317.45
321.72
328.54
327.30
305.57
253.72
170.76
66.58
-40.95
-131.66
-190.42
-212.77
-205.36
-182.88
-162.46
-156.66
-169.97
-197.90
-229.46
-251.07
-252.03
-227.71
-180.93
-121.64
-63.40
-19.88
-0.45
-7.89
-38.10
-81.25
-125.09
-158.19
-173.70
-170.48
-152.92
-128.83
-105.97
-89.86
-83.29
-85.82
-94.81
-106.47
-115.48
-116.34
-103.93
-74.60
-27.52
34.66
105.67
176.93
238.50
282.08
301.49
293.91
260.91
208.28
145.54
83.90
33.32
-0.30
-17.14
-23.23
-27.00
-34.73
-47.70
-61.95
-71.47
-72.37
-65.59
-55.79
-48.77
-46.97
-48.52
-48.83
-43.77
-32.05
-15.40
2.75
19.67
34.47
47.18
57.51
63.58
63.37
55.86
41.90
24.25
6.04
-11.28
-27.48
-42.46
-54.78
-60.54
-56.48
-41.76
-20.03
1.05
13.76
14.03
3.44
-11.67
-22.82
-23.86
-13.01
6.89
30.13
50.43
62.94
65.84
60.55
51.33
43.93
43.43
52.59
70.31
91.90
109.86
115.87
103.65
72.69
29.00
-15.49
-47.41
-58.40
-49.26
-30.99
-19.77
-29.67
-65.86
-121.99
-182.87
-231.08
-254.39
-249.15
-220.37
-178.56
-135.26
-99.63
-76.79
-67.55
-68.98
-76.24
-83.61
-86.62
-82.75
-71.73
-55.28
-36.24
-18.50
-5.72
-0.86
-3.87
-11.81
-18.98
-18.93
-6.79
19.00
56.43
100.95
147.27
191.11
228.92
257.68
275.03
278.89
268.86
246.95
217.28
185.36
157.40
137.91
128.12
125.80
125.74
121.96
110.49
90.78
65.39
37.88
11.03
-14.11
-36.50
-53.82
-62.08
-57.09
-37.98
-9.60
17.40
30.30
20.27
-13.19
-61.06
-108.41
-140.48
-148.71
-133.50
-103.41
-70.74
-46.06
-34.60
-36.30
-47.09
-61.36
-73.71
-80.43
-79.32
-70.16
-54.20
-34.49
-14.62
2.64
16.26
26.63
34.72
41.74
48.99
58.73
72.74
91.61
112.99
130.89
137.29
125.92
96.19
54.10
10.07
-25.25
-44.74
-46.69
-34.18
-12.79
12.07
35.70
54.27
64.57
64.27
53.11
33.31
8.52
-17.11
-41.08
-62.82
-82.79
-101.21
-116.77
-127.50
-131.66
-129.54
-122.81
-113.68
-104.15
-95.13
-86.68
-78.43
-70.37
-62.34
-54.22
-45.81
-36.89
-29.00
-25.17
-28.98
-41.83
-61.55
-82.83
-99.35
-106.75
-104.67
-95.83
-83.12
-68.36
-51.43
-31.92
-10.98
8.30
21.56
26.13
22.35
14.42
8.68
11.17
26.30
55.40
96.50
143.19
185.49
211.34
210.79
180.67
126.23
60.30
-2.30
-50.55
-81.18
-97.63
-105.87
-109.72
-107.74
-95.15
-67.64
-24.75
28.97
85.86
137.94
179.38
207.98
224.43
231.19
230.84
225.15
214.41
196.74
168.96
127.86
72.27
5.23
-66.36
-132.70
-183.77
-213.06
-219.28
-206.50
-182.48
-156.83
-138.16
-131.61
-137.74
-151.92
-166.96
-175.85
-174.67
-164.44
-150.35
-139.24
-135.80
-140.08
-147.06
-148.23
-135.32
-102.96
-50.85
15.90
88.92
158.57
216.23
255.70
273.55
270.18
249.47
217.36
179.77
140.56
100.42
57.72
11.46
-35.98
-78.31
-107.26
-117.30
-108.60
-87.60
-64.19
-46.91
-40.07
-43.20
-52.89
-65.92
-80.91
-97.78
-115.38
-130.63
-138.15
-131.08
-104.32
-57.10
5.35
73.28
135.36
182.88
212.52
225.94
227.60
220.75
206.38
183.73
153.18
118.00
85.05
62.56
56.74
69.47
97.28
132.93
166.49
188.26
190.05
166.96
119.39
53.42
-19.57
-86.13
-133.68
-155.40
-152.74
-134.90
-115.54
-106.97
-115.04
-136.89
-163.41
-184.03
-191.79
-186.04
-171.29
-154.51
-141.50
-135.73
-138.48
-149.69
-168.08
-189.75
-207.38
-211.25
-192.65
-147.02
-77.46
6.04
90.33
163.96
221.18
263.02
295.41
324.14
352.11
377.70
396.40
403.76
397.87
379.88
353.20
320.89
284.15
242.67
195.49
143.13
88.16
35.06
-11.76
-49.42
-77.22
-96.34
-108.61
-116.12
-120.54
-123.25
-125.68
-128.00
-129.24
-128.33
-125.27
-122.37
-123.67
-133.34
-151.85
-174.71
-193.85
-200.92
-191.54
-167.34
-134.14
-97.80
-60.88
-22.84
17.28
57.58
91.17
108.48
101.27
67.75
14.53
-45.01
-95.24
-124.38
-128.02
-110.37
-80.86
-49.31
-22.81
-3.75
8.73
16.14
19.38
19.02
16.86
16.01
19.63
28.07
37.46
41.22
34.29
16.87
-4.30
-19.23
-19.48
-3.02
24.64
53.41
72.97
76.98
64.53
39.18
6.53
-27.06
-54.98
-71.57
-73.12
-59.55
-35.31
-7.44
16.52
32.23
40.26
44.13
47.83
52.85
57.16
56.75
48.64
33.39
15.68
1.71
-5.02
-6.38
-8.45
-18.37
-39.66
-69.23
-97.84
-113.72
-108.23
-80.62
-38.26
6.35
40.88
58.24
58.20
45.59
26.99
8.06
-7.91
-18.84
-23.33
-21.00
-12.77
-1.84
7.15
10.58
7.65
1.58
-2.40
0.02
9.11
21.68
32.70
38.10
36.59
29.10
17.51
3.78
-10.63
-23.69
-32.39
-34.35
-28.92
-19.10
-10.83
-9.35
-16.79
-30.43
-43.71
-49.41
-43.49
-26.68
-4.04
17.27
31.52
35.49
28.86
14.13
-4.66
-22.85
-35.62
-38.42
-28.19
-3.78
32.70
76.31
119.54
154.19
173.28
173.01
153.42
117.85
71.49
18.79
-36.67
-92.13
-145.04
-191.16
-225.30
-242.83
-240.77
-218.93
-180.41
-130.06
-73.78
-18.60
28.47
60.66
72.95
63.97
36.86
-0.86
-39.57
-70.97
-90.12
-95.78
-89.93
-75.40
-54.74
-30.37
-4.87
18.60
36.99
49.09
55.91
59.89
63.60
67.82
71.48
73.59
74.25
74.76
76.35
77.69
74.12
59.95
32.29
-5.86
-45.32
-74.39
-85.06
-76.81
-56.82
-35.67
-21.48
-17.19
-19.67
-22.70
-20.87
-11.92
3.65
23.71
45.99
68.42
88.47
103.02
108.63
103.09
87.44
65.99
45.01
30.57
24.96
26.38
30.14
30.31
22.83
6.46
-17.42
-45.72
-74.09
-97.69
-111.89
-112.62
-97.95
-69.74
-33.61
2.18
29.74
44.89
48.57
45.83
42.80
44.06
50.52
59.18
65.92
67.46
63.12
54.94
45.90
38.07
31.79
27.04
24.57
26.07
33.18
44.03
53.16
52.50
35.61
1.49
-43.09
-86.39
-117.32
-130.64
-129.27
-121.73
-116.67
-117.48
-121.09
-120.61
-109.50
-85.35
-51.05
-12.80
23.15
52.38
73.64
87.38
94.76
96.11
91.58
82.38
70.89
60.56
54.34
52.28
51.30
46.66
35.05
16.59
-4.36
-21.74
-30.90
-31.49
-27.47
-24.60
-26.09
-31.21
-36.08
-36.45
-31.49
-24.69
-21.59
-26.65
-40.23
-58.28
-74.51
-83.77
-84.16
-77.36
-66.51
-54.43
-41.83
-27.33
-9.13
13.02
38.23
65.05
91.59
116.62
139.13
158.06
171.98
180.43
184.21
185.37
186.77
189.47
193.09
195.36
193.90
188.65
182.47
179.98
186.29
204.09
232.59
268.15
304.93
335.71
352.35
347.43
316.02
258.53
182.21
100.28
28.14
-23.50
-53.05
-68.41
-83.33
-110.82
-157.37
-221.69
-297.55
-377.61
-456.50
-531.33
-598.81
-654.03
-690.55
-702.47
-687.57
-647.37
-586.06
-508.82
-420.41
-325.95
-232.79
-151.56
-93.64
-67.28
-73.51
-103.52
-141.32
-168.77
-172.27
-147.66
-100.20
-41.18
17.63
68.19
108.52
140.56
168.09
194.69
222.63
253.84
290.19
331.82
375.46
413.69
436.18
434.23
404.46
350.49
281.97
210.71
146.05
93.06
52.82
23.48
2.25
-13.59
-27.18
-42.19
-61.97
-88.40
-120.63
-155.42
-188.17
-214.62
-232.53
-242.34
-246.39
-247.72
-249.51
-253.56
-259.91
-266.81
-270.03
-263.93
-242.61
-201.11
-137.13
-51.53
51.74
166.16
282.94
391.73
481.14
541.31
566.68
558.92
526.48
481.09
432.64
384.21
331.49
266.68
185.11
89.86
-8.40
-95.18
-158.27
-192.35
-200.37
-190.89
-174.48
-160.55
-155.81
-163.94
-184.82
-213.34
-239.86
-252.15
-239.79
-198.91
-135.63
-65.24
-6.73
24.70
24.66
2.01
-25.14
-36.60
-18.30
32.35
106.28
187.39
258.10
303.64
315.18
291.12
236.93
164.73
90.46
29.56
-8.08
-22.09
-21.79
-21.90
-36.35
-72.33
-127.74
-192.75
-254.11
-299.63
-321.00
-314.78
-282.02
-228.16
-162.74
-98.51
-48.64
-22.90
-25.30
-52.67
-95.80
-142.53
-181.71
-204.90
-207.54
-188.50
-148.83
-91.36
-21.07
55.86
132.56
202.71
262.57
311.61
351.59
385.24
414.18
437.77
453.61
459.25
454.54
442.56
428.66
417.47
409.42
399.18
377.00
332.37
258.34
154.86
28.81
-108.37
-243.83
-365.73
-465.73
-538.74
-582.31
-596.82
-584.58
-549.19
-495.68
-430.13
-359.65
-292.44
-237.10
-201.13
-188.87
-200.13
-230.09
-270.68
-312.42
-346.61
-367.36
-372.58
-363.74
-343.98
-315.45
-276.92
-223.37
-148.44
-49.04
70.30
196.58
312.67
403.99
465.11
500.27
518.89
529.67
535.75
534.53
521.69
496.02
460.98
422.85
386.56
352.03
313.34
261.79
191.28
102.29
3.04
-92.43
-168.96
-216.29
-233.20
-228.45
-216.86
-212.27
-220.34
-235.45
-243.34
-228.07
-180.22
-101.73
-5.05
92.01
173.72
230.61
260.25
264.70
247.37
211.94
163.72
111.93
69.27
48.20
54.36
81.93
114.93
133.37
123.42
84.64
30.48
-18.39
-43.57
-37.71
-6.75
33.84
65.94
75.53
55.85
7.67
-63.64
-149.47
-239.43
-322.13
-386.72
-425.63
-436.37
-423.07
-394.61
-361.42
-331.16
-305.59
-281.05
-251.28
-211.58
-160.81
-101.63
-38.53
24.35
83.63
135.91
176.33
199.27
199.77
177.60
137.84
91.06
49.76
24.28
19.26
32.15
55.89
81.70
103.60
120.37
135.73
156.36
188.33
234.18
291.37
353.67
413.09
462.18
495.93
512.29
511.66
495.62
465.97
422.77
364.71
290.86
203.04
107.92
15.87
-62.40
-120.87
-160.49
-188.51
-213.00
-238.06
-261.23
-275.99
-277.73
-268.87
-260.27
-266.25
-297.28
-354.02
-425.60
-493.78
-539.71
-550.78
-524.26
-467.50
-394.74
-322.27
-263.42
-225.17
-206.96
-200.23
-191.87
-168.43
-120.82
-48.28
41.71
136.05
220.59
285.64
328.46
353.06
367.26
379.16
394.13
414.17
438.17
462.49
482.18
491.77
486.72
464.44
425.74
373.93
314.21
251.58
189.62
129.61
70.64
10.39
-53.68
-123.06
-197.55
-273.91
-346.17
-406.46
-446.76
-461.42
-448.68
-410.11
-350.17
-275.22
-193.08
-113.15
-46.09
-1.87
12.63
-3.05
-40.54
-84.18
-115.39
-118.60
-87.47
-27.53
46.90
118.39
173.80
207.99
223.52
226.08
220.32
208.14
189.69
166.05
140.52
116.78
95.67
73.89
45.96
7.94
-38.59
-86.21
-124.60
-145.37
-145.84
-129.57
-103.54
-74.53
-47.24
-23.83
-4.47
11.62
24.87
35.08
41.35
42.98
39.98
33.49
25.24
15.90
3.51
-17.43
-53.67
-109.58
-183.82
-268.04
-349.12
-413.27
-450.52
-457.36
-436.72
-396.26
-346.01
-295.97
-254.00
-223.54
-202.41
-183.56
-157.71
-116.70
-57.56
15.51
92.65
162.32
215.48
248.68
263.26
263.10
251.04
227.75
192.35
144.09
84.67
18.69
-46.34
-101.85
-141.20
-161.07
-161.40
-144.08
-111.33
-63.85
-1.46
75.60
164.61
259.09
349.10
423.91
476.10
504.31
513.17
510.73
504.29
496.21
483.62
461.26
425.39
377.03
322.44
270.71
229.05
198.99
174.93
146.72
104.17
42.01
-36.78
-121.76
-199.16
-257.50
-291.70
-304.91
-306.23
-306.27
-312.33
-326.51
-346.28
-366.21
-381.01
-386.97
-382.68
-368.30
-344.98
-315.08
-281.14
-246.18
-212.97
-183.19
-156.97
-133.29
-110.16
-85.49
-57.72
-26.38
7.16
40.03
68.10
86.75
92.11
81.62
54.97
15.61
-28.78
-66.72
-85.49
-76.46
-38.64
19.44
82.68
135.29
167.18
177.24
172.25
161.77
152.70
146.87
142.40
137.50
132.99
132.64
140.48
157.55
180.78
203.43
218.28
220.27
207.53
180.49
140.46
89.77
31.94
-27.70
-83.00
-127.63
-157.42
-171.08
-169.78
-156.86
-136.05
-111.01
-84.94
-61.31
-43.08
-33.26
-34.45
-48.19
-75.33
-114.04
-158.67
-199.27
-223.64
-221.59
-190.64
-137.93
-77.85
-26.31
7.00
21.49
24.29
24.76
28.61
35.36
40.91
42.09
40.34
42.15
54.75
81.28
118.79
159.25
193.18
214.33
221.60
218.08
209.13
199.84
193.47
191.26
191.95
191.53
183.69
160.58
115.48
46.92
-39.25
-129.76
-207.54
-258.65
-277.00
-266.08
-236.56
-200.61
-166.67
-137.12
-109.99
-82.93
-56.14
-32.35
-15.17
-6.18
-4.29
-6.59
-10.82
-16.91
-26.48
-41.01
-60.00
-80.83
-100.17
-116.08
-128.16
-137.51
-145.16
-150.61
-152.04
-147.25
-135.37
-117.02
-94.19
-69.02
-42.21
-12.11
24.54
70.69
126.30
187.53
247.40
297.95
333.93
355.03
365.15
370.40
374.30
374.82
363.98
331.65
270.32
179.09
65.65
-55.26
-165.58
-249.88
-298.95
-311.17
-291.75
-249.61
-194.48
-135.71
-82.45
-43.11
-24.42
-29.22
-54.35
-91.02
-126.89
-151.13
-157.93
-148.20
-127.21
-100.94
-72.64
-42.50
-9.88
24.20
55.48
78.61
89.47
87.58
76.83
63.62
54.06
51.51
55.73
63.45
70.15
71.66
65.55
51.82
32.77
12.24
-5.15
-15.17
-15.13
-4.32
15.70
41.05
66.34
85.06
91.28
81.36
56.02
20.42
-15.76
-41.96
-51.00
-41.70
-20.26
2.30
15.51
14.09
-0.38
-20.74
-39.17
-51.49
-58.45
-63.08
-66.63
-66.58
-57.23
-33.80
3.62
48.12
88.14
112.52
114.94
95.67
60.85
19.44
-19.78
-49.75
-65.89
-67.09
-56.24
-40.50
-29.12
-29.89
-44.68
-67.50
-85.97
-87.44
-65.40
-22.81
28.21
72.37
98.54
104.06
94.41
78.84
64.44
53.12
43.10
31.64
18.88
7.34
-0.81
-6.51
-13.78
-27.39
-49.25
-75.75
-99.43
-112.58
-111.14
-96.36
-73.47
-47.98
-23.54
-1.63
16.82
29.26
31.21
17.81
-13.95
-62.21
-118.76
-171.06
-205.89
-214.15
-194.67
-154.82
-107.57
-66.71
-40.79
-31.48
-33.70
-39.24
-40.87
-34.94
-21.13
-0.31
27.16
62.29
105.50
154.58
203.70
243.84
265.88
264.87
241.40
201.41
153.13
104.26
59.47
21.39
-8.01
-26.95
-33.61
-27.11
-9.05
16.26
42.71
64.26
76.56
77.69
68.22
50.33
27.16
1.66
-23.43
-45.36
-61.71
-70.25
-69.24
-58.66
-40.54
-18.52
3.24
21.86
36.52
48.78
61.36
76.64
94.99
114.50
131.09
138.80
131.57
105.40
59.67
-1.60
-69.91
-134.42
-184.95
-214.89
-223.34
-215.01
-197.45
-177.60
-158.99
-141.76
-124.12
-104.50
-83.09
-61.53
-40.45
-18.84
6.11
36.39
69.75
99.00
113.92
106.97
77.78
35.09
-7.18
-36.34
-45.88
-38.61
-23.98
-13.26
-14.32
-28.56
-50.56
-71.44
-82.21
-77.32
-56.13
-23.48
11.40
38.21
48.64
39.56
14.11
-20.02
-53.10
-77.09
-87.29
-83.73
-70.62
-54.86
-44.17
-44.39
-57.42
-79.19
-100.80
-111.06
-100.67
-66.25
-11.24
54.39
118.51
170.73
205.31
221.24
221.99
213.36
201.86
192.90
188.98
188.87
187.82
179.69
160.34
130.29
95.07
62.34
38.16
23.85
16.08
9.60
1.02
-8.54
-14.08
-9.74
6.99
33.41
62.49
85.53
96.04
91.57
75.12
53.41
33.70
21.33
17.45
18.63
18.58
11.63
-4.61
-27.18
-49.52
-65.69
-73.44
-75.83
-79.10
-87.71
-101.09
-113.85
-119.75
-116.90
-110.18
-109.33
-122.87
-152.57
-190.89
-223.28
-235.38
-219.70
-178.45
-122.40
-64.48
-15.78
18.16
37.54
45.51
45.62
40.25
30.52
16.53
-0.67
-18.84
-34.90
-44.66
-44.74
-33.84
-13.17
13.25
39.70
61.63
76.78
85.29
88.35
86.40
78.79
65.49
48.99
34.09
26.91
31.02
43.87
57.35
60.95
48.50
22.17
-8.35
-31.40
-39.99
-36.06
-28.90
-28.24
-38.70
-56.32
-71.10
-73.30
-58.37
-28.46
8.85
44.27
70.13
81.46
77.36
60.51
36.71
14.01
0.27
0.41
14.26
36.81
59.76
75.01
78.56
71.53
58.84
46.24
36.48
28.09
16.73
-1.82
-28.17
-57.81
-83.38
-98.53
-101.89
-97.45
-92.14
-90.72
-94.05
-99.03
-102.02
-101.85
-100.55
-101.29
-105.18
-109.76
-110.05
-101.94
-84.68
-62.13
-40.49
-24.29
-13.77
-5.39
6.19
25.07
51.35
82.11
113.56
142.48
167.09
186.54
199.49
204.62
201.12
189.61
172.33
152.51
132.94
115.49
100.87
88.91
79.01
70.36
61.14
49.15
32.47
9.88
-18.53
-52.23
-89.86
-129.10
-165.95
-195.62
-213.57
-218.05
-211.34
-198.78
-186.78
-180.16
-179.99
-184.06
-187.84
-186.00
-174.21
-149.04
-109.46
-57.21
2.58
62.50
115.52
157.63
188.78
211.24
226.21
232.44
227.27
208.88
179.14
142.65
104.98
69.58
36.67
5.03
-25.12
-50.51
-66.22
-68.88
-59.89
-45.43
-32.57
-25.07
-20.78
-13.57
1.81
25.12
49.60
65.29
64.14
45.15
14.36
-17.81
-41.64
-52.21
-50.35
-40.04
-25.65
-9.80
6.62
23.03
38.48
50.93
58.40
60.05
57.13
52.62
49.40
48.78
49.15
47.00
39.20
24.19
3.65
-17.79
-35.29
-45.10
-46.20
-41.39
-35.68
-34.29
-40.67
-54.36
-71.30
-85.07
-89.20
-79.71
-56.45
-22.55
16.37
54.17
85.06
104.56
109.84
100.25
78.63
49.92
20.26
-5.80
-26.33
-41.74
-53.47
-62.39
-68.77
-73.10
-76.93
-82.39
-91.44
-103.83
-116.49
-124.69
-123.73
-110.14
-82.50
-41.97
8.04
61.65
110.95
146.79
160.67
148.39
112.62
62.97
13.36
-22.91
-37.82
-31.01
-8.29
21.71
51.67
77.88
100.33
119.90
136.11
146.71
148.30
139.09
120.14
95.49
70.28
48.77
32.86
21.89
13.66
5.34
-5.23
-19.51
-38.61
-63.93
-96.58
-136.00
-178.88
-218.99
-249.08
-263.58
-261.24
-245.17
-220.43
-191.00
-157.98
-120.16
-76.33
-28.89
15.71
48.55
62.20
54.69
30.43
-1.22
-30.38
-50.81
-61.90
-67.85
-74.27
-84.52
-97.15
-107.12
-109.14
-101.82
-90.12
-82.85
-88.50
-110.87
-146.55
-186.44
-219.99
-238.59
-238.02
-218.41
-182.31
-132.84
-72.93
-6.39
62.45
128.72
188.88
241.47
287.61
329.79
369.66
406.22
436.16
455.30
460.88
454.29
440.57
426.06
414.88
405.70
391.27
361.18
306.63
225.16
123.77
16.97
-77.27
-143.17
-172.48
-167.28
-139.65
-107.05
-86.59
-88.27
-111.68
-146.90
-179.52
-198.15
-198.71
-186.34
-170.76
-161.41
-163.06
-175.17
-193.51
-212.34
-226.52
-230.63
-219.60
-189.36
-139.14
-72.45
3.24
78.76
147.11
205.24
253.27
291.96
320.03
333.10
326.15
296.41
245.61
180.53
111.01
47.10
-3.63
-37.72
-55.56
-59.92
-55.10
-46.18
-38.61
-37.71
-46.93
-66.14
-91.16
-114.80
-129.55
-130.58
-118.20
-97.89
-78.53
-68.01
-70.42
-84.54
-104.76
-122.98
-132.67
-131.22
-120.24
-104.64
-89.31
-76.50
-63.75
-45.80
-16.86
25.02
76.77
130.31
175.08
202.46
208.03
193.13
163.38
126.31
88.08
52.15
19.83
-8.62
-31.57
-45.86
-47.77
-35.39
-10.71
20.48
50.31
71.92
81.92
80.92
71.38
54.98
31.51
0.12
-38.19
-78.77
-113.14
-133.45
-135.84
-124.09
-107.43
-96.64
-98.98
-114.29
-135.35
-151.89
-155.83
-144.59
-121.63
-92.90
-62.93
-33.61
-4.44
25.10
54.00
79.72
99.45
111.62
116.95
116.98
112.42
102.55
85.79
61.31
31.10
0.40
-24.09
-36.07
-32.84
-17.28
3.46
19.26
21.34
6.07
-23.09
-57.00
-84.96
-100.27
-102.59
-97.05
-90.58
-86.90
-83.42
-72.24
-44.90
2.79
67.44
138.49
202.04
245.21
260.91
249.76
218.76
178.00
137.03
101.64
73.29
49.72
26.75
0.97
-29.56
-65.69
-106.73
-151.25
-196.62
-238.79
-273.03
-294.90
-300.93
-289.96
-262.51
-220.39
-166.64
-105.12
-40.26
22.75
77.83
119.58
144.57
152.53
147.49
137.09
130.57
135.55
154.59
183.15
210.71
224.72
217.30
189.66
152.48
120.59
105.46
109.18
123.52
135.16
132.42
111.29
76.32
36.65
0.56
-28.56
-51.53
-70.29
-85.47
-96.18
-102.03
-105.84
-112.96
-128.01
-151.05
-175.60
-191.54
-190.91
-171.83
-139.16
-101.51
-65.95
-34.75
-6.17
22.88
53.53
84.23
112.23
136.39
158.38
181.21
206.64
232.15
250.62
252.07
227.71
173.82
93.68
-2.44
-99.49
-181.42
-235.12
-253.45
-237.26
-194.70
-139.58
-88.49
-57.09
-55.17
-83.68
-133.37
-187.58
-228.38
-242.49
-225.81
-183.80
-128.87
-75.26
-35.61
-18.18
-25.35
-53.42
-92.04
-126.28
-140.74
-124.47
-75.75
-3.38
76.93
148.67
201.04
232.00
246.42
252.26
255.70
258.81
259.31
252.13
232.13
195.35
140.83
70.63
-9.80
-92.44
-168.64
-230.40
-272.15
-290.77
-286.51
-262.00
-222.35
-173.79
-122.89
-75.64
-36.26
-6.93
11.38
17.57
10.98
-8.27
-36.50
-65.97
-86.54
-89.33
-70.81
-34.48
10.63
55.14
93.40
125.26
154.26
182.83
209.78
229.43
234.52
220.61
188.47
144.50
98.16
58.16
29.56
13.59
8.39
11.38
19.99
32.12
45.39
56.98
64.37
66.38
65.01
64.38
69.83
85.78
114.10
153.44
199.91
247.98
291.50
324.80
343.35
344.89
329.83
299.76
255.44
195.40
116.96
18.77
-95.45
-216.61
-331.50
-427.15
-495.39
-534.47
-547.83
-540.91
-518.41
-483.63
-440.30
-393.46
-350.81
-320.59
-307.99
-312.98
-329.26
-346.24
-352.89
-341.91
-311.93
-267.61
-217.21
-168.33
-125.18
-86.48
-47.43
-1.63
55.51
124.92
204.39
289.40
375.52
458.97
536.86
606.82
666.89
714.88
748.48
764.56
758.82
726.80
665.21
575.14
462.91
340.25
220.65
114.98
29.12
-36.37
-83.86
-115.99
-134.44
-141.07
-139.31
-134.62
-132.76
-137.14
-147.75
-162.44
-179.91
-201.53
-230.66
-268.12
-309.81
-345.85
-364.83
-358.81
-326.83
-275.80
-216.99
-161.77
-118.23
-90.46
-78.61
-80.17
-90.73
-104.14
-114.62
-119.17
-119.55
-122.69
-137.40
-169.23
-216.11
-267.84
-309.54
-327.91
-316.36
-277.58
-220.82
-157.25
-96.20
-44.05
-5.75
14.32
12.30
-11.85
-52.22
-96.26
-127.65
-132.08
-101.90
-38.65
48.95
148.37
247.43
336.14
407.36
455.99
478.26
472.88
441.29
388.21
320.94
248.31
178.54
117.86
69.23
31.48
0.51
-28.26
-56.74
-82.46
-99.30
-101.72
-88.39
-63.39
-34.35
-8.47
10.66
22.95
29.98
32.71
30.90
24.55
15.73
8.58
6.51
9.00
10.15
0.71
-27.96
-77.95
-142.71
-208.89
-261.42
-289.14
-289.09
-266.65
-231.69
-193.33
-155.56
-115.72
-66.60
-0.98
84.00
184.27
289.50
386.11
460.43
501.56
503.89
468.33
403.43
324.31
248.68
191.54
159.78
149.91
149.24
141.42
113.44
61.33
-8.31
-80.99
-139.62
-171.31
-171.55
-145.44
-105.50
-67.49
-46.13
-50.86
-82.87
-134.63
-191.71
-237.55
-259.34
-252.59
-222.33
-181.05
-143.84
-122.82
-123.96
-146.09
-182.80
-225.11
-264.31
-293.31
-307.16
-302.83
-279.93
-241.18
-192.87
-144.47
-106.62
-89.21
-98.34
-134.98
-193.57
-262.95
-328.17
-373.90
-388.77
-368.76
-318.56
-249.63
-175.52
-106.07
-44.10
14.76
78.40
153.07
240.41
336.61
434.23
524.79
600.85
657.21
691.64
705.61
703.79
692.95
679.33
666.58
654.78
640.95
621.43
592.82
552.76
499.53
432.88
354.86
271.31
191.56
125.70
80.44
56.02
47.12
45.76
45.95
44.86
41.91
35.39
20.64
-8.55
-56.29
-120.73
-193.84
-264.73
-325.43
-374.47
-415.81
-454.12
-490.18
-519.08
-532.61
-525.01
-497.57
-458.26
-417.98
-384.13
-356.11
-326.12
-284.24
-225.15
-152.89
-79.94
-22.33
7.14
4.84
-23.55
-65.66
-107.87
-138.83
-152.66
-148.67
-130.29
-103.52
-75.41
-51.53
-34.13
-21.70
-10.04
4.64
22.97
41.63
54.90
58.71
53.25
43.18
35.52
35.61
44.09
57.02
67.65
69.16
57.72
34.57
6.49
-16.17
-23.26
-8.99
24.26
65.94
100.73
114.99
103.21
71.05
33.17
6.94
4.74
28.97
71.79
119.65
159.42
183.25
189.67
181.45
162.36
135.86
105.32
75.14
50.60
36.24
32.94
36.01
37.22
28.40
5.81
-27.59
-63.42
-92.19
-107.78
-109.11
-99.30
-83.03
-64.50
-46.80
-31.98
-21.45
-16.68
-19.45
-31.59
-53.97
-84.95
-119.46
-149.15
-164.75
-159.31
-131.44
-87.21
-38.81
-0.84
14.68
2.75
-32.94
-81.29
-127.98
-160.58
-172.41
-163.23
-138.17
-104.33
-66.86
-27.75
13.53
57.08
100.79
140.16
170.74
191.58
206.63
223.21
247.55
281.25
320.10
357.22
386.49
406.08
418.66
428.67
438.90
448.05
452.44
448.44
435.35
415.82
392.81
366.58
333.56
289.04
230.26
160.36
87.13
19.09
-38.74
-87.42
-131.68
-176.13
-221.25
-262.03
-290.21
-298.80
-286.48
-258.04
-223.63
-193.76
-175.63
-170.32
-173.88
-180.21
-185.06
-188.12
-192.06
-200.12
-212.17
-224.59
-231.61
-228.62
-213.85
-188.05
-153.85
-113.94
-72.09
-33.95
-6.44
4.58
-2.33
-22.85
-47.86
-68.21
-79.26
-82.64
-84.45
-91.09
-104.95
-122.27
-135.68
-137.65
-125.42
-103.63
-84.23
-81.82
-107.35
-162.01
-234.95
-306.85
-356.80
-370.57
-344.79
-287.10
-212.09
-135.44
-69.38
-20.46
10.62
28.03
38.89
50.65
68.59
94.07
124.82
156.51
184.65
205.64
216.97
217.01
205.53
184.87
160.10
138.05
124.37
120.46
122.11
121.43
110.38
84.41
44.33
-4.52
-54.39
-97.77
-128.55
-142.58
-138.68
-119.14
-89.81
-59.30
-37.36
-31.12
-42.42
-66.25
-91.09
-102.35
-87.53
-41.13
32.60
120.91
206.87
275.26
317.63
334.58
334.32
328.29
325.47
327.96
329.53
318.24
282.44
217.70
130.63
38.23
-37.71
-78.86
-77.37
-38.35
22.49
85.29
133.20
157.25
156.72
137.13
107.41
76.39
51.37
37.09
34.56
41.04
49.95
51.87
37.69
1.81
-55.30
-126.80
-201.40
-267.14
-315.35
-342.64
-350.63
-343.65
-325.94
-299.69
-265.12
-222.60
-175.31
-129.28
-91.73
-67.14
-53.62
-42.44
-21.23
19.74
81.87
156.75
230.12
287.70
321.26
330.53
320.32
296.72
263.87
222.86
173.45
116.64
55.41
-6.05
-63.96
-117.28
-167.74
-218.41
-270.67
-321.63
-363.09
-383.86
-373.51
-327.00
-248.65
-151.16
-51.27
36.44
104.50
153.74
190.84
223.78
257.42
291.23
320.21
337.62
337.78
317.60
276.81
217.23
141.73
55.19
-35.17
-120.05
-189.30
-235.07
-254.81
-252.51
-236.69
-217.00
-200.35
-188.71
-179.33
-167.44
-150.52
-129.82
-110.90
-101.66
-109.03
-135.64
-177.89
-227.01
-271.99
-303.65
-317.70
-314.99
-299.91
-277.20
-248.84
-213.95
-170.01
-115.16
-51.67
13.66
71.13
111.36
129.03
125.83
109.93
92.49
82.52
81.87
84.07
77.63
52.16
4.89
-57.26
-120.26
-168.64
-190.62
-182.13
-147.29
-95.88
-40.41
8.17
44.59
70.52
93.61
122.98
163.32
211.26
256.14
284.97
289.43
270.08
235.72
198.00
166.52
145.48
134.88
133.63
141.46
158.67
184.03
213.90
243.38
269.21
291.60
313.75
339.19
368.08
396.30
416.59
421.34
405.42
366.53
305.06
224.03
129.72
32.01
-56.90
-125.52
-167.52
-184.35
-185.04
-182.55
-188.98
-211.91
-253.01
-308.34
-369.89
-427.53
-471.13
-493.44
-492.00
-469.87
-433.25
-388.96
-341.61
-293.29
-245.85
-203.01
-170.64
-153.92
-154.23
-166.17
-178.99
-180.60
-163.07
-126.13
-76.68
-24.41
23.02
62.47
95.47
124.78
151.57
173.69
186.92
188.09
177.30
159.03
139.80
124.99
116.48
112.18
107.75
99.03
85.20
68.35
52.89
43.32
41.84
47.10
55.17
61.96
65.25
66.60
69.33
76.32
88.01
102.78
118.09
132.51
146.19
159.09
169.18
171.18
159.47
130.48
85.56
31.04
-24.41
-72.59
-108.49
-129.65
-134.88
-122.66
-91.65
-42.18
21.39
90.23
152.13
195.30
212.44
202.99
174.37
138.59
107.87
90.07
85.91
89.70
92.21
85.69
66.49
36.46
0.98
-33.45
-61.96
-82.21
-93.21
-94.66
-85.90
-67.02
-40.68
-13.15
6.94
12.35
1.11
-21.28
-43.54
-53.42
-44.28
-18.27
14.12
39.52
47.97
36.58
9.74
-24.66
-58.80
-86.50
-103.91
-108.13
-97.90
-74.75
-44.42
-16.67
-2.24
-8.98
-38.31
-84.52
-136.61
-182.13
-211.32
-218.52
-203.03
-168.69
-123.38
-77.78
-42.52
-24.91
-25.18
-36.35
-47.08
-47.16
-33.05
-9.01
15.24
30.65
34.27
30.76
28.82
35.72
52.06
71.62
84.86
84.91
71.63
51.06
32.30
21.62
19.86
22.48
23.38
18.74
8.75
-2.87
-12.36
-17.55
-19.19
-19.07
-17.83
-14.69
-8.93
-2.10
1.16
-5.77
-28.04
-65.73
-112.95
-159.48
-194.93
-212.51
-211.10
-194.35
-169.10
-142.80
-121.96
-110.79
-110.62
-119.40
-131.60
-140.28
-139.11
-125.29
-99.91
-66.70
-30.41
6.45
43.94
84.38
129.31
178.06
226.58
269.45
302.61
325.38
341.34
355.98
372.73
390.06
401.08
396.90
371.64
326.34
268.30
207.50
151.32
101.19
53.81
5.54
-44.11
-91.26
-129.03
-152.01
-159.10
-154.07
-144.31
-137.22
-138.39
-150.15
-171.09
-195.92
-217.30
-227.47
-221.20
-197.33
-158.99
-112.34
-64.14
-19.81
17.70
47.90
73.11
96.34
119.99
144.10
165.27
177.95
177.15
161.70
135.43
106.81
85.27
76.35
79.63
88.95
95.26
90.72
70.87
35.58
-10.44
-58.66
-98.24
-118.43
-112.29
-80.44
-32.17
17.53
53.61
67.26
59.86
41.52
26.40
25.20
40.30
64.57
84.94
88.18
66.45
19.99
-43.22
-110.26
-167.52
-203.91
-214.09
-200.14
-171.23
-141.08
-123.33
-126.15
-148.16
-179.83
-207.56
-220.32
-213.93
-191.60
-160.28
-126.37
-93.47
-62.24
-33.06
-6.91
14.86
31.33
43.00
51.27
56.63
58.62
56.74
52.47
50.81
57.84
77.20
106.73
137.90
160.08
165.49
152.88
127.12
96.20
66.73
41.49
21.44
7.63
2.83
10.54
31.56
61.30
90.36
108.48
109.11
92.91
66.44
38.76
17.23
5.56
4.15
12.03
27.18
45.77
61.12
64.89
51.06
19.68
-21.69
-60.92
-87.38
-97.15
-94.80
-89.52
-89.12
-95.23
-103.57
-108.17
-106.47
-101.13
-97.69
-99.43
-104.42
-105.70
-95.62
-70.73
-34.14
5.81
38.90
58.28
61.98
53.21
37.44
20.13
5.35
-4.06
-6.25
-0.38
13.25
32.05
51.15
64.70
67.15
56.39
34.76
8.93
-13.07
-25.14
-26.12
-19.85
-12.31
-8.40
-9.75
-14.58
-20.11
-24.60
-27.62
-28.95
-27.32
-20.61
-7.65
10.43
30.00
47.08
60.04
71.05
84.32
102.92
125.81
147.44
161.28
162.70
150.79
127.75
96.44
58.97
16.52
-28.93
-73.60
-111.28
-135.52
-142.54
-132.03
-107.46
-75.15
-42.11
-15.27
-1.62
-7.38
-36.92
-90.03
-160.46
-235.08
-297.74
-333.79
-335.53
-305.36
-254.92
-200.51
-156.32
-130.09
-121.31
-123.04
-125.28
-117.82
-92.99
-46.59
21.54
106.64
199.60
288.68
363.36
417.78
451.56
468.79
474.48
471.22
458.02
431.51
389.05
330.62
259.67
181.72
101.73
24.40
-45.57
-102.54
-140.44
-154.60
-144.73
-116.63
-80.64
-48.28
-27.14
-18.48
-17.69
-17.75
-13.46
-5.21
1.57
-1.29
-21.04
-60.68
-117.06
-181.09
-240.68
-283.44
-301.30
-292.36
-261.71
-218.97
-173.85
-132.97
-97.68
-65.29
-31.94
4.00
40.14
70.50
87.60
85.98
64.57
27.55
-16.87
-59.65
-93.90
-116.52
-128.48
-133.36
-134.80
-134.90
-133.53
-129.04
-119.00
-101.25
-73.79
-34.56
17.07
79.24
146.05
208.60
257.12
284.89
290.32
277.42
253.90
227.10
202.15
180.75
161.72
142.77
122.18
98.70
72.45
45.57
21.88
5.53
-1.18
0.23
4.31
4.34
-4.26
-20.74
-39.20
-52.46
-56.11
-51.10
-43.38
-39.75
-43.91
-54.76
-66.89
-74.46
-75.04
-70.63
-66.53
-67.84
-75.82
-87.34
-96.13
-96.28
-85.48
-65.87
-42.06
-18.62
2.40
21.63
40.69
58.63
71.32
72.80
58.51
29.24
-8.30
-43.88
-67.86
-75.79
-70.38
-58.78
-48.84
-45.15
-47.31
-51.71
-54.04
-51.84
-45.49
-36.78
-26.88
-16.37
-4.93
7.18
19.12
30.08
40.46
51.77
65.20
80.22
93.97
101.56
98.44
82.33
54.26
18.25
-21.11
-60.46
-98.57
-136.05
-173.75
-210.35
-241.89
-262.39
-265.56
-247.81
-210.05
-157.13
-96.56
-35.57
21.10
71.43
115.60
154.59
189.20
219.90
246.43
267.26
280.37
283.95
276.87
259.98
237.01
213.51
194.69
182.90
175.58
166.11
147.08
113.67
67.03
14.56
-33.59
-68.32
-86.06
-89.46
-85.08
-79.16
-74.60
-71.24
-68.02
-65.77
-67.03
-74.18
-87.35
-102.60
-114.48
-118.29
-112.97
-101.34
-87.59
-74.21
-60.87
-45.41
-26.07
-5.17
11.09
14.43
-1.51
-37.33
-86.35
-136.91
-176.39
-195.94
-193.88
-174.67
-146.48
-116.74
-90.06
-68.51
-52.77
-43.44
-40.24
-41.09
-40.51
-31.07
-7.29
31.45
79.14
125.53
160.05
176.05
173.11
156.70
134.60
113.70
98.58
90.62
89.24
92.08
95.16
93.86
85.12
69.36
52.22
43.28
51.13
79.19
121.90
166.34
198.00
207.87
196.23
171.67
145.76
125.99
113.17
102.91
89.20
67.92
37.82
-0.61
-46.63
-98.35
-151.43
-197.91
-228.75
-237.71
-225.03
-197.72
-165.70
-136.01
-109.42
-81.12
-45.33
-0.39
48.79
92.62
120.94
127.21
110.65
75.34
27.75
-24.92
-76.00
-120.06
-153.13
-173.28
-180.70
-177.21
-165.58
-148.65
-127.74
-102.67
-72.63
-38.20
-2.74
27.52
44.89
44.41
26.98
-0.08
-25.79
-40.77
-41.24
-30.03
-14.12
0.61
12.64
25.05
42.22
64.57
86.89
100.31
97.54
77.90
48.64
21.04
4.10
-0.71
-0.32
-5.75
-24.99
-57.50
-93.70
-119.75
-124.08
-103.04
-61.57
-9.93
40.57
81.09
106.51
114.87
106.46
82.86
47.53
5.94
-35.33
-69.18
-89.89
-94.62
-84.22
-63.07
-37.68
-14.56
2.44
13.08
20.67
29.38
41.16
54.35
64.51
66.85
59.13
43.40
24.80
8.71
-2.14
-8.33
-13.11
-20.37
-32.16
-48.04
-65.12
-78.65
-82.97
-73.59
-48.64
-10.10
35.49
78.90
110.75
125.23
122.64
109.00
92.68
80.37
73.97
70.01
62.57
46.86
21.84
-9.37
-40.75
-66.51
-82.89
-88.80
-84.97
-72.41
-52.73
-29.02
-6.64
6.67
3.51
-19.06
-56.94
-99.46
-132.96
-146.85
-138.49
-114.72
-88.67
-73.09
-75.19
-93.40
-118.56
-138.99
-145.53
-134.31
-108.05
-73.90
-39.89
-11.78
8.31
21.34
29.44
33.25
31.22
20.93
1.53
-23.83
-48.14
-63.25
-63.51
-48.78
-24.69
0.13
18.24
26.64
27.76
28.06
34.83
54.49
90.68
144.30
213.13
291.93
372.32
443.87
495.34
517.79
507.19
465.88
402.19
328.54
258.13
200.65
160.24
134.74
116.79
97.05
66.89
21.54
-38.95
-109.22
-179.84
-240.13
-280.94
-297.31
-289.24
-261.22
-220.38
-174.35
-130.25
-93.38
-66.78
-50.83
-42.71
-37.74
-32.10
-25.02
-19.96
-22.98
-39.32
-69.59
-108.68
-148.28
-179.64
-197.16
-198.57
-183.72
-154.03
-112.29
-63.56
-15.43
23.35
45.99
50.58
40.96
24.82
9.62
-0.23
-4.15
-3.25
1.00
7.96
17.01
25.87
30.07
24.99
7.94
-19.42
-50.99
-79.08
-97.11
-102.12
-95.00
-78.62
-55.83
-27.97
4.40
40.27
77.45
112.24
140.03
156.54
159.01
147.35
124.66
97.96
76.14
66.95
73.56
92.51
114.65
129.95
132.25
122.06
105.55
90.69
82.66
81.69
83.48
81.35
69.63
44.63
4.95
-48.11
-109.61
-170.72
-219.91
-246.32
-244.17
-215.09
-167.08
-111.15
-57.09
-11.13
23.97
47.52
58.77
58.02
47.01
29.02
8.12
-13.13
-34.09
-55.45
-77.01
-96.64
-111.04
-117.46
-115.91
-109.88
-104.23
-103.34
-108.69
-118.24
-126.84
-128.38
-117.83
-93.23
-56.34
-11.66
34.82
78.36
116.96
150.49
178.75
199.73
209.25
203.60
182.16
149.35
113.48
82.99
63.73
57.79
64.37
81.99
109.46
143.99
179.41
206.13
214.40
198.87
161.72
112.69
65.25
30.07
10.63
2.26
-5.51
-23.80
-58.98
-110.47
-171.66
-232.77
-284.27
-319.63
-336.80
-338.13
-329.10
-316.08
-304.32
-296.28
-290.32
-281.61
-263.46
-229.57
-177.88
-112.29
-42.06
21.03
68.02
96.50
111.40
122.40
138.63
164.32
197.64
232.16
260.31
276.62
278.52
265.48
238.56
200.08
154.21
106.92
64.26
29.86
3.10
-20.08
-43.95
-70.07
-95.95
-115.98
-125.15
-122.01
-109.32
-91.69
-73.09
-54.54
-33.90
-8.23
24.41
62.57
101.45
134.54
155.76
161.41
152.10
132.65
109.86
90.21
77.41
71.03
67.50
61.96
50.29
31.57
8.13
-15.61
-34.91
-47.03
-51.46
-50.13
-45.99
-41.80
-38.88
-36.95
-34.57
-29.83
-21.27
-7.91
10.86
34.77
61.90
88.20
107.89
115.19
106.90
83.51
49.30
10.79
-25.48
-55.11
-75.94
-87.97
-91.64
-88.29
-80.23
-70.34
-61.68
-55.87
-52.53
-50.20
-47.03
-42.49
-37.37
-33.36
-32.26
-35.28
-42.60
-53.37
-65.81
-76.86
-82.33
-77.66
-59.45
-27.15
15.66
61.80
102.41
129.66
138.67
128.52
102.30
65.99
26.91
-8.40
-34.41
-47.61
-46.78
-32.95
-10.13
15.51
36.54
45.90
39.31
16.94
-15.66
-49.48
-75.18
-85.75
-78.52
-56.08
-25.10
6.14
30.25
42.74
43.43
36.18
26.52
19.34
16.19
15.67
14.19
7.69
-6.51
-28.60
-56.50
-86.07
-112.60
-131.66
-140.61
-138.68
-127.54
-110.03
-88.30
-62.62
-31.21
7.12
51.23
95.87
131.97
150.14
144.74
116.87
74.77
30.84
-2.96
-19.23
-17.38
-2.12
19.41
41.18
58.77
69.20
70.54
61.14
41.63
16.06
-9.25
-27.13
-32.96
-26.84
-14.02
-2.09
2.37
-3.33
-16.64
-31.28
-40.18
-39.34
-30.02
-17.93
-10.04
-10.54
-17.93
-25.48
-24.97
-11.48
13.40
42.48
66.17
76.88
71.39
51.62
23.08
-7.23
-31.88
-44.90
-42.83
-26.14
-0.50
24.15
36.48
28.00
-2.93
-49.71
-99.40
-137.96
-155.91
-151.77
-131.68
-105.97
-84.63
-73.46
-72.98
-79.78
-88.28
-92.20
-85.79
-64.98
-28.46
20.77
75.72
127.02
166.01
187.85
191.97
181.32
159.52
129.47
93.70
55.90
22.05
-1.27
-9.43
-3.01
11.94
26.34
32.43
27.23
13.43
-3.28
-17.82
-28.01
-35.29
-41.88
-48.39
-52.17
-48.53
-33.21
-4.96
32.84
73.09
106.99
127.30
130.54
117.68
93.75
65.71
41.17
25.92
23.20
32.58
49.40
65.82
73.86
69.01
52.44
30.94
12.35
1.35
-3.41
-7.93
-18.53
-37.44
-61.76
-85.55
-103.91
-116.20
-124.95
-134.31
-146.81
-162.54
-179.88
-196.83
-211.23
-220.08
-219.20
-203.97
-172.19
-125.83
-71.54
-19.20
21.21
43.76
48.75
42.53
35.43
36.69
50.07
72.99
97.63
115.42
122.41
120.41
115.40
113.81
117.74
123.70
124.85
115.01
92.31
60.16
26.03
-1.87
-16.87
-16.29
-1.39
23.91
54.06
83.45
107.17
121.52
123.63
112.56
89.11
57.09
22.14
-9.35
-32.16
-44.68
-48.76
-48.91
-49.79
-54.65
-63.87
-75.74
-87.58
-96.28
-99.88
-97.43
-88.70
-73.72
-52.60
-26.61
1.15
24.98
38.40
36.42
18.42
-10.64
-42.33
-68.61
-85.28
-92.70
-93.89
-91.32
-85.70
-76.14
-62.74
-47.76
-34.44
-24.58
-15.95
-3.47
16.93
44.23
70.67
85.88
82.46
61.47
32.31
8.04
-0.81
8.16
30.10
56.27
79.05
94.66
102.49
102.55
93.99
75.15
45.76
9.50
-26.88
-55.77
-71.67
-73.03
-62.17
-44.26
-25.38
-10.79
-4.39
-8.14
-21.50
-41.16
-61.57
-76.24
-80.47
-72.71
-54.89
-31.65
-8.83
8.57
18.07
19.40
13.77
2.85
-11.72
-27.75
-41.78
-49.05
-44.24
-24.08
9.82
51.16
90.44
118.84
131.65
129.46
117.11
100.20
83.26
68.72
57.66
50.22
45.06
38.80
26.14
2.89
-31.09
-69.94
-102.56
-117.07
-106.71
-73.85
-29.16
13.63
43.72
58.06
61.71
64.02
73.17
91.66
115.41
136.26
146.33
142.55
127.74
108.43
91.15
78.88
69.68
58.68
41.49
17.25
-9.93
-32.18
-41.13
-31.02
-1.83
39.99
83.23
114.60
122.71
101.59
52.27
-17.37
-94.56
-164.66
-214.95
-237.59
-231.67
-203.85
-166.08
-132.35
-112.90
-110.32
-118.65
-125.83
-120.05
-95.79
-56.99
-14.14
20.98
41.16
46.13
40.86
32.10
25.09
22.13
22.61
24.50
24.59
19.92
8.54
-10.58
-36.08
-65.15
-94.00
-119.18
-138.39
-150.34
-154.30
-149.56
-136.30
-116.63
-96.06
-81.70
-79.50
-91.13
-111.64
-131.08
-137.74
-123.24
-86.18
-32.99
24.68
74.89
110.16
128.92
133.41
125.63
104.69
67.29
10.83
-61.50
-138.11
-201.51
-233.26
-221.33
-165.27
-76.91
24.13
117.81
190.58
238.81
267.62
286.55
303.11
320.02
335.08
344.03
344.23
336.10
321.93
303.77
281.95
255.34
224.13
191.67
164.56
149.93
151.06
164.00
178.29
180.42
158.80
108.56
32.82
-58.99
-154.56
-241.83
-311.97
-359.67
-382.43
-379.87
-354.00
-310.33
-258.05
-208.51
-172.14
-155.08
-156.20
-167.75
-178.34
-177.13
-158.27
-122.21
-74.52
-22.79
25.96
66.86
96.87
114.89
120.72
115.50
102.31
85.83
71.58
64.08
64.31
68.17
68.02
56.49
30.33
-7.18
-46.56
-76.58
-89.25
-83.21
-63.88
-40.27
-20.74
-10.33
-9.57
-15.88
-25.43
-33.61
-35.82
-28.31
-9.17
20.51
56.37
91.95
120.26
136.65
139.32
129.76
111.44
88.01
61.80
33.54
2.76
-31.48
-68.19
-103.49
-129.78
-137.80
-119.88
-74.27
-7.59
66.32
129.93
169.05
177.27
158.29
123.69
86.98
57.92
39.60
29.57
22.98
16.88
11.15
6.67
2.73
-4.43
-19.50
-44.51
-75.85
-104.84
-121.22
-118.57
-97.22
-63.93
-28.93
-1.25
14.24
17.59
12.81
6.24
3.44
7.24
16.87
28.26
36.40
37.89
31.83
19.32
1.83
-19.82
-44.27
-67.37
-81.61
-78.02
-50.80
-2.44
54.35
100.24
116.35
92.39
31.81
-49.66
-129.10
-185.63
-207.58
-195.38
-160.18
-118.04
-83.59
-64.57
-61.12
-67.64
-76.90
-83.63
-86.15
-85.54
-83.65
-81.52
-78.64
-73.27
-63.48
-48.25
-27.92
-4.17
20.60
44.01
63.97
79.10
88.98
94.04
95.66
95.66
96.35
98.81
103.04
107.52
109.95
108.64
102.86
93.63
82.34
70.27
57.68
43.54
26.25
4.96
-19.83
-46.38
-71.28
-90.21
-99.09
-95.53
-80.09
-56.67
-30.69
-7.72
8.64
17.54
20.37
19.51
17.74
17.03
17.86
19.44
19.77
17.32
12.20
7.11
6.96
16.96
40.05
74.56
114.97
153.63
184.46
204.43
212.46
208.13
190.21
156.89
107.66
45.81
-21.08
-82.83
-129.42
-154.38
-156.17
-139.03
-111.65
-83.78
-63.46
-53.96
-53.51
-56.46
-56.74
-51.15
-41.68
-34.07
-34.77
-47.55
-71.21
-100.53
-128.15
-147.65
-154.33
-145.85
-121.89
-83.57
-35.58
13.68
53.09
71.87
64.04
31.49
-16.41
-65.83
-104.46
-125.91
-130.43
-122.59
-107.51
-87.28
-61.52
-28.88
9.47
48.18
78.78
92.55
83.64
51.54
1.37
-58.14
-117.20
-167.85
-205.74
-230.59
-245.16
-253.01
-256.55
-255.76
-248.43
-230.78
-199.79
-154.91
-98.77
-36.46
25.81
83.43
134.52
180.37
224.43
269.03
313.31
353.53
384.20
401.63
406.53
403.40
398.03
393.92
389.61
379.55
357.07
318.46
265.46
203.90
139.94
77.73
18.17
-39.70
-94.59
-141.39
-172.12
-178.97
-159.18
-117.19
-63.92
-12.24
27.58
51.47
61.62
63.50
62.38
60.19
55.14
43.97
24.15
-4.39
-38.73
-73.69
-102.64
-119.24
-119.17
-101.16
-68.06
-26.63
14.34
47.15
66.37
70.43
61.09
41.42
15.00
-14.99
-45.08
-71.46
-89.90
-97.27
-93.09
-79.52
-61.40
-44.53
-33.95
-32.37
-39.76
-53.24
-68.29
-80.72
-88.11
-90.44
-89.79
-88.87
-88.94
-89.16
-86.96
-80.38
-70.69
-63.60
-67.24
-87.49
-124.14
-170.04
-213.75
-244.57
-257.75
-256.01
-246.23
-234.94
-223.95
-209.56
-185.59
-147.03
-93.10
-27.34
44.87
118.55
189.90
256.16
314.57
361.81
395.28
414.52
420.97
417.74
407.81
391.42
365.60
325.52
268.25
195.38
114.34
36.19
-27.88
-70.31
-89.87
-90.52
-80.19
-68.07
-61.75
-65.43
-78.60
-96.02
-109.30
-109.95
-93.27
-61.22
-21.77
13.46
33.99
34.73
17.61
-10.28
-40.27
-65.08
-81.37
-89.34
-91.04
-88.61
-82.98
-74.82
-65.66
-58.47
-56.36
-60.42
-67.51
-71.17
-65.53
-49.25
-27.28
-8.97
-2.59
-10.69
-28.48
-46.73
-57.54
-58.79
-54.39
-50.99
-53.25
-60.66
-68.25
-70.29
-64.02
-51.28
-37.89
-29.31
-27.76
-30.99
-33.64
-30.84
-21.04
-6.90
6.84
16.72
23.36
31.87
48.92
78.78
120.67
168.08
211.34
241.64
254.28
249.74
232.20
207.73
182.19
159.22
140.40
124.66
108.99
89.37
62.92
29.79
-6.67
-40.38
-66.42
-83.46
-94.45
-105.17
-119.82
-138.14
-154.80
-162.50
-156.56
-138.34
-115.12
-95.86
-86.97
-89.59
-99.95
-111.78
-119.06
-118.15
-107.70
-88.33
-62.15
-32.65
-3.65
21.08
40.04
53.70
64.23
73.14
79.89
82.80
79.38
69.48
54.88
38.53
22.61
7.40
-7.80
-23.07
-36.41
-44.37
-43.48
-32.62
-14.27
6.48
24.19
34.93
37.31
31.49
17.49
-5.56
-38.67
-81.35
-128.90
-172.51
-202.10
-211.23
-200.29
-176.88
-151.17
-130.04
-113.41
-94.33
-64.61
-20.69
32.26
82.56
118.12
133.34
132.14
125.75
127.57
147.14
186.87
242.81
306.84
369.74
423.05
458.58
469.46
450.25
398.63
317.09
213.51
99.80
-10.87
-107.14
-181.99
-233.49
-263.22
-273.77
-266.31
-239.95
-194.15
-131.66
-61.07
3.97
48.30
61.12
40.78
-3.53
-54.48
-92.92
-105.39
-89.28
-53.95
-16.61
4.95
-0.29
-31.22
-75.25
-112.91
-126.49
-107.53
-60.33
-0.33
53.18
84.45
86.86
64.44
28.37
-8.35
-35.79
-49.60
-51.45
-47.19
-44.01
-48.10
-62.16
-84.13
-107.63
-124.07
-126.19
-111.67
-83.91
-50.89
-21.49
-1.93
5.90
3.68
-5.74
-20.25
-38.96
-60.35
-80.84
-95.20
-99.26
-92.91
-80.67
-70.09
-67.99
-76.96
-93.86
-111.88
-123.61
-124.15
-112.30
-89.87
-60.28
-26.92
7.42
41.02
72.87
102.66
130.31
154.89
174.55
185.94
185.52
171.42
144.67
109.52
72.98
43.95
30.32
36.93
63.77
105.66
152.84
193.71
217.93
219.57
198.94
162.18
119.20
80.59
54.76
45.57
52.26
69.40
88.98
101.78
99.40
75.99
30.55
-32.20
-102.72
-169.19
-221.56
-254.46
-268.29
-267.02
-255.48
-236.75
-212.00
-182.16
-149.56
-118.51
-93.27
-75.71
-64.02
-53.19
-37.73
-14.18
16.56
49.87
79.11
98.52
104.83
98.43
83.62
66.50
53.63
49.62
55.57
68.69
83.87
95.79
101.08
99.42
93.28
85.90
79.51
73.89
66.16
52.26
29.49
-1.93
-38.19
-73.17
-100.97
-118.14
-124.52
-123.38
-119.26
-115.81
-114.72
-115.49
-116.82
-117.88
-119.08
-121.25
-125.22
-130.87
-136.99
-141.94
-143.74
-140.23
-128.92
-107.30
-73.33
-28.00
24.31
76.18
119.76
149.87
165.87
171.16
170.68
168.13
163.96
156.56
143.86
124.64
99.50
69.66
36.79
2.55
-31.20
-61.45
-83.92
-94.27
-89.47
-68.19
-32.38
12.80
60.69
104.80
140.73
167.36
186.11
198.42
204.45
202.06
188.62
163.92
132.15
100.89
77.86
66.70
65.24
67.13
64.50
51.90
28.46
-3.26
-38.55
-72.25
-100.00
-118.65
-127.19
-127.72
-124.72
-123.47
-127.26
-134.63
-139.29
-134.05
-115.65
-87.16
-56.63
-31.98
-16.07
-5.19
7.87
28.22
55.30
83.38
105.41
117.39
120.22
118.00
114.16
109.99
104.41
96.32
87.25
80.56
78.74
81.24
83.42
78.71
62.26
33.40
-3.19
-39.41
-66.35
-78.10
-73.44
-56.76
-36.73
-23.33
-23.66
-39.36
-66.89
-99.20
-128.73
-150.10
-161.15
-161.91
-153.31
-136.20
-111.72
-81.70
-49.15
-17.68
9.26
30.13
45.11
55.71
62.72
65.75
63.07
53.01
35.79
14.18
-6.61
-21.13
-25.58
-20.02
-8.49
2.67
7.90
4.28
-6.96
-21.36
-33.39
-38.79
-36.47
-29.08
-22.77
-25.23
-42.71
-77.71
-127.26
-183.92
-238.24
-281.79
-310.02
-322.91
-324.52
-320.42
-315.79
-313.84
-315.51
-320.37
-326.45
-330.68
-328.11
-312.62
-278.06
-221.41
-144.90
-57.14
28.69
99.02
144.38
162.12
156.52
136.40
110.71
86.06
65.94
51.57
44.67
47.43
61.69
86.63
117.23
145.48
163.74
168.73
163.67
156.70
156.49
167.72
189.16
215.05
239.23
257.67
268.73
271.11
262.61
240.67
206.18
166.29
133.61
121.65
138.54
182.40
241.19
298.30
339.00
355.73
350.07
330.55
308.83
296.31
301.05
325.88
368.05
418.89
465.54
493.44
490.21
449.39
373.54
274.25
168.92
75.66
7.09
-33.50
-53.47
-67.23
-90.65
-134.22
-198.63
-274.88
-347.62
-401.92
-428.82
-427.55
-404.81
-370.95
-335.35
-303.64
-277.42
-255.31
-235.33
-215.79
-195.91
-175.31
-153.93
-132.76
-113.73
-99.44
-92.11
-92.33
-98.51
-106.88
-113.65
-116.61
-116.45
-117.22
-123.61
-138.15
-159.00
-179.59
-191.04
-185.94
-161.80
-121.33
-70.98
-18.19
30.68
70.69
98.32
111.42
109.87
96.33
76.89
59.32
50.81
55.15
70.93
92.61
112.26
122.85
120.53
106.23
84.95
64.91
53.96
56.30
70.96
91.20
108.44
116.21
113.05
102.12
88.45
75.85
64.14
50.14
30.21
1.90
-34.26
-75.18
-115.98
-151.07
-174.66
-181.82
-169.68
-139.08
-94.35
-43.27
4.97
42.08
62.16
62.99
45.82
15.61
-20.01
-52.24
-73.77
-80.90
-74.48
-59.24
-40.39
-20.88
-0.37
22.99
49.92
77.72
99.54
107.23
95.52
65.32
24.47
-15.53
-44.56
-57.98
-57.89
-50.65
-42.70
-37.27
-33.61
-29.77
-25.39
-23.48
-29.10
-46.08
-74.90
-111.77
-149.79
-181.32
-200.11
-202.14
-186.12
-154.26
-112.46
-69.36
-34.30
-14.23
-10.13
-15.93
-20.96
-14.24
10.50
52.42
104.25
155.87
197.43
221.52
224.04
203.92
163.65
109.57
51.83
1.84
-31.47
-44.79
-42.00
-31.84
-24.14
-25.95
-40.76
-68.53
-107.31
-153.30
-200.01
-238.00
-256.67
-248.79
-214.06
-160.76
-102.09
-50.76
-13.45
11.56
31.61
55.33
87.68
128.80
175.20
221.91
264.79
300.84
328.28
345.55
351.82
347.29
333.77
314.98
295.10
277.69
263.33
248.88
226.90
188.70
128.70
48.76
-40.23
-121.33
-177.84
-201.39
-195.66
-174.84
-155.60
-149.21
-156.85
-170.92
-181.45
-181.85
-172.51
-159.46
-150.00
-148.98
-157.44
-173.44
-193.60
-213.76
-227.95
-228.39
-206.53
-156.59
-79.36
16.48
116.52
206.23
275.84
323.08
350.94
363.46
361.96
345.10
311.68
264.62
211.96
163.60
126.51
100.76
80.24
55.94
20.88
-27.15
-85.48
-148.78
-210.45
-263.19
-299.55
-313.62
-303.90
-275.39
-239.29
-208.56
-192.23
-191.19
-198.35
-203.11
-197.37
-179.58
-154.55
-129.26
-108.71
-93.58
-81.57
-70.25
-59.07
-48.90
-39.82
-28.36
-7.92
28.38
83.10
151.50
222.20
281.47
318.53
329.03
315.37
283.27
238.81
187.08
132.91
81.94
39.96
11.37
-2.69
-5.64
-4.55
-7.78
-22.53
-52.43
-96.64
-150.10
-204.44
-250.37
-280.05
-289.52
-279.43
-253.62
-216.77
-172.00
-120.66
-63.81
-4.18
53.75
105.09
147.43
181.67
210.88
237.97
263.19
284.34
298.59
304.59
303.11
296.28
284.91
268.06
243.64
210.39
170.02
126.47
84.79
49.03
20.74
0.01
-14.50
-24.70
-33.28
-43.88
-60.94
-88.13
-126.26
-171.84
-217.22
-253.29
-272.23
-269.89
-246.32
-205.75
-154.87
-101.73
-54.58
-19.49
0.72
7.94
8.09
9.00
16.54
32.00
51.93
70.07
81.12
82.47
74.26
56.78
28.52
-13.74
-71.97
-142.54
-214.98
-273.44
-302.45
-293.19
-247.14
-176.09
-96.62
-23.38
36.39
83.08
121.95
157.78
191.48
219.22
234.48
232.19
210.32
171.71
122.97
73.07
31.09
3.31
-8.54
-7.91
-1.32
3.98
3.44
-4.52
-18.61
-36.53
-55.92
-74.02
-87.21
-91.31
-84.42
-69.32
-53.61
-46.97
-55.82
-79.16
-108.08
-130.14
-136.01
-123.90
-99.30
-70.48
-43.95
-21.09
0.81
25.98
56.52
91.03
125.48
155.03
176.46
188.51
191.10
183.86
166.21
137.66
98.79
52.41
3.48
-43.59
-86.29
-124.44
-159.33
-190.77
-215.18
-225.87
-215.70
-181.03
-124.93
-55.77
15.99
81.63
136.55
179.77
212.07
233.87
245.06
245.72
236.82
219.91
195.94
164.33
123.84
75.20
23.03
-24.89
-60.85
-80.94
-87.75
-88.86
-92.27
-101.80
-114.76
-123.87
-122.12
-106.61
-79.42
-46.31
-12.75
18.35
46.33
70.63
88.34
94.59
84.90
57.97
17.27
-30.58
-78.26
-120.05
-153.20
-176.91
-190.62
-192.52
-180.41
-153.51
-113.61
-65.69
-16.18
29.44
67.75
98.24
121.57
138.12
147.43
148.16
138.75
117.70
84.41
39.40
-14.19
-70.37
-120.27
-154.03
-164.94
-152.57
-123.93
-90.76
-64.16
-49.61
-46.09
-47.69
-48.81
-47.74
-47.09
-50.58
-60.02
-72.98
-83.64
-86.65
-79.99
-65.98
-50.34
-38.93
-34.72
-35.72
-36.05
-28.76
-9.50
21.08
57.68
92.92
121.45
143.10
162.62
186.42
218.28
255.41
289.44
310.21
310.04
288.02
248.33
197.65
142.39
86.39
31.63
-18.99
-61.22
-90.47
-103.74
-102.29
-92.14
-81.65
-77.67
-83.19
-95.67
-109.01
-116.39
-112.93
-97.49
-72.27
-41.03
-7.58
24.08
50.79
69.69
78.29
75.81
63.46
45.18
27.17
16.29
17.70
33.17
59.15
87.32
107.14
108.26
85.19
39.99
-17.41
-72.81
-112.30
-128.02
-120.75
-98.16
-72.01
-52.59
-46.00
-52.64
-68.54
-88.46
-108.30
-125.93
-140.20
-150.65
-156.31
-156.01
-149.50
-137.78
-122.95
-107.57
-93.26
-79.21
-63.30
-42.49
-14.93
18.69
55.74
92.25
124.24
148.83
165.20
174.05
177.45
178.05
177.32
175.01
169.14
156.44
133.28
97.41
48.95
-8.98
-70.96
-130.30
-180.74
-218.49
-242.44
-253.45
-252.76
-241.49
-219.51
-186.93
-145.29
-97.97
-49.98
-5.19
34.83
71.84
108.68
146.30
181.58
208.42
221.22
218.78
205.82
191.48
185.14
191.41
209.00
231.35
250.43
260.28
257.96
242.96
214.34
170.36
109.09
30.71
-59.71
-151.96
-231.86
-285.94
-305.61
-290.35
-248.39
-193.96
-143.64
-111.14
-103.57
-119.47
-149.02
-177.08
-188.17
-171.85
-126.82
-61.71
8.54
67.49
102.83
109.29
89.01
49.15
-0.38
-49.24
-88.40
-111.48
-116.96
-107.60
-89.34
-68.93
-50.64
-35.25
-20.34
-2.18
21.54
50.31
80.68
108.38
129.46
141.26
142.57
132.58
110.30
74.32
23.82
-38.68
-105.78
-166.56
-209.07
-225.18
-214.33
-182.84
-140.10
-94.30
-49.34
-5.39
38.30
80.83
118.77
147.88
165.20
170.26
164.38
149.94
128.90
103.79
78.80
59.74
51.89
57.54
73.78
93.31
107.36
109.50
98.78
79.56
58.21
39.88
25.84
13.34
-1.45
-20.56
-42.15
-61.06
-71.57
-70.59
-60.29
-47.24
-39.11
-41.19
-53.85
-72.07
-88.08
-95.01
-90.53
-76.79
-58.93
-41.50
-25.52
-8.54
13.83
44.12
80.67
117.90
148.14
164.78
165.12
150.58
124.62
90.92
51.78
8.95
-34.48
-72.75
-98.45
-104.86
-90.20
-59.22
-22.06
9.85
28.59
33.14
28.16
20.44
15.25
13.58
13.10
11.22
7.12
3.05
3.09
10.02
23.83
39.94
50.28
46.45
22.20
-23.53
-84.52
-147.87
-198.10
-222.32
-215.53
-182.60
-136.33
-91.84
-60.61
-46.36
-44.94
-48.00
-47.05
-37.59
-20.54
-0.81
14.98
20.60
12.86
-8.03
-38.54
-72.64
-103.78
-126.21
-136.21
-132.33
-114.82
-85.04
-44.94
3.73
59.00
117.15
172.46
218.18
248.45
260.55
256.28
241.22
221.77
201.75
181.00
157.15
128.51
96.59
66.42
42.85
27.43
16.66
4.25
-14.90
-40.76
-67.69
-87.79
-95.38
-90.31
-77.45
-64.11
-55.77
-53.97
-56.58
-60.24
-62.25
-61.55
-58.67
-54.30
-48.72
-41.53
-31.89
-19.06
-2.84
15.97
35.71
53.73
68.09
77.85
82.81
82.85
77.23
64.60
44.31
18.31
-8.30
-28.80
-37.92
-35.00
-24.98
-15.65
-13.74
-20.47
-30.95
-37.11
-32.23
-15.15
9.18
31.91
44.35
41.97
26.40
4.93
-13.08
-20.39
-15.09
-1.12
14.72
25.67
28.40
23.57
14.37
3.80
-6.65
-17.84
-30.98
-46.64
-64.31
-82.82
-101.11
-117.40
-129.15
-132.44
-124.83
-107.18
-84.92
-66.27
-57.08
-56.84
-57.76
-48.42
-19.91
29.12
91.08
153.04
201.90
228.63
230.19
208.43
168.54
117.38
62.80
12.95
-25.57
-48.74
-55.61
-48.94
-33.33
-14.42
2.47
13.32
15.86
10.93
1.92
-5.43
-5.90
3.39
21.90
45.82
69.48
86.55
91.01
77.59
43.30
-10.19
-75.08
-138.28
-184.73
-203.89
-194.46
-165.58
-133.00
-111.63
-109.17
-123.17
-144.14
-160.92
-166.24
-158.50
-140.14
-115.19
-86.87
-57.16
-27.85
-0.94
21.87
40.12
54.31
65.04
71.98
73.93
69.76
60.19
48.60
39.87
37.64
43.44
56.65
75.95
101.05
131.87
167.51
204.55
237.48
260.73
270.62
266.05
246.87
212.86
163.44
100.67
31.53
-31.31
-73.46
-84.74
-64.86
-25.28
15.95
41.52
41.91
17.85
-22.47
-68.54
-112.00
-147.83
-173.75
-188.04
-190.75
-184.33
-174.11
-166.68
-166.34
-173.11
-182.59
-189.21
-189.21
-182.33
-170.70
-155.52
-135.09
-105.93
-66.23
-18.30
30.34
70.34
95.49
106.14
109.32
115.14
131.70
160.91
198.00
233.58
258.02
265.45
255.69
233.40
205.01
176.35
150.22
126.73
103.92
78.41
46.48
4.93
-47.14
-106.86
-167.50
-219.69
-254.27
-266.10
-255.92
-230.28
-198.77
-169.57
-146.70
-129.31
-113.03
-92.78
-66.01
-34.00
-1.45
24.78
38.74
37.83
24.24
4.23
-14.57
-26.82
-32.26
-35.26
-42.47
-58.53
-83.42
-112.30
-137.47
-151.91
-150.82
-131.40
-93.21
-38.36
28.16
98.14
162.16
212.33
244.77
260.50
262.76
254.27
235.82
207.17
169.59
127.28
87.03
55.10
34.86
26.80
29.13
39.89
57.26
79.32
103.32
125.90
144.19
156.91
165.00
169.86
172.16
169.98
158.83
134.28
95.11
44.99
-7.74
-52.65
-81.15
-89.65
-80.61
-60.27
-35.73
-12.24
7.69
22.67
30.93
29.55
16.79
-6.22
-34.19
-59.57
-76.72
-84.68
-88.61
-96.70
-116.49
-150.84
-196.27
-243.79
-281.80
-300.12
-293.11
-261.12
-210.47
-151.39
-93.41
-42.56
-0.28
34.37
61.25
77.32
78.22
62.92
37.21
13.54
4.59
15.94
42.39
69.95
84.60
79.25
57.35
29.37
5.96
-7.36
-11.45
-9.99
-6.14
-1.09
4.13
7.19
4.93
-4.10
-17.40
-28.47
-30.24
-18.95
3.42
30.31
53.23
65.18
63.46
49.11
26.14
0.22
-23.22
-39.61
-46.49
-44.49
-36.85
-28.05
-22.03
-20.93
-24.33
-30.05
-35.01
-35.97
-30.37
-17.20
2.00
23.76
43.89
59.35
69.26
74.91
77.71
77.99
74.17
64.42
48.66
30.03
14.03
5.40
6.55
16.53
31.48
47.67
62.76
76.23
88.72
100.59
110.18
114.99
112.87
103.35
88.79
72.76
57.80
43.98
29.20
12.07
-6.15
-20.74
-26.36
-21.29
-10.52
-3.98
-10.85
-32.97
-62.03
-83.45
-84.22
-61.39
-23.74
12.53
31.70
25.91
-3.83
-50.97
-108.07
-170.11
-234.06
-295.64
-347.94
-382.75
-393.97
-381.79
-353.43
-320.02
-291.22
-270.09
-252.31
-228.81
-191.24
-136.13
-67.32
5.91
72.53
123.80
155.85
170.61
174.67
176.02
182.09
197.46
223.48
259.34
302.28
347.77
389.67
419.97
429.86
412.74
367.25
298.80
218.98
141.04
75.84
28.86
0.44
-12.41
-13.09
-5.11
6.71
15.71
13.69
-4.90
-39.99
-84.25
-126.16
-154.58
-164.30
-157.81
-143.39
-131.24
-128.78
-137.83
-154.35
-170.31
-177.52
-171.01
-150.41
-119.39
-84.30
-51.81
-26.95
-12.28
-7.82
-11.06
-17.70
-22.47
-20.69
-11.05
3.82
17.90
25.23
23.94
17.82
14.68
22.05
42.70
72.84
104.95
131.18
146.81
150.81
144.62
129.13
104.39
70.51
29.79
-12.35
-48.33
-70.17
-72.75
-55.05
-21.61
18.63
55.54
80.67
90.27
85.76
72.83
57.94
46.09
38.84
33.99
27.72
16.30
-2.72
-30.05
-64.09
-101.40
-136.73
-164.11
-178.89
-178.97
-166.31
-145.84
-123.53
-103.80
-88.31
-75.28
-61.69
-45.45
-25.84
-4.24
17.69
39.00
59.55
79.08
96.77
110.71
118.73
120.26
116.15
109.01
101.47
94.09
84.92
71.04
50.57
25.06
-0.16
-18.90
-26.94
-24.50
-16.38
-8.17
-3.39
-1.85
-0.87
2.13
6.93
11.48
14.21
15.83
19.69
28.99
43.57
58.42
66.25
61.83
45.87
25.49
10.41
8.22
20.06
40.67
61.66
75.36
78.09
70.57
55.36
35.16
11.89
-13.19
-37.76
-58.22
-70.97
-74.09
-68.57
-58.28
-48.13
-41.85
-40.99
-44.59
-49.85
-53.65
-54.23
-51.72
-48.23
-47.06
-51.14
-61.16
-74.28
-84.45
-85.09
-72.76
-50.58
-27.84
-16.26
-23.97
-51.54
-90.61
-127.97
-151.14
-153.08
-134.60
-102.31
-65.37
-30.91
-2.22
21.22
41.60
60.52
77.54
90.54
97.18
96.75
91.95
87.75
88.40
94.61
101.61
101.00
84.79
50.32
2.23
-48.87
-91.07
-116.73
-125.10
-122.12
-115.39
-109.57
-103.83
-93.36
-73.13
-41.92
-4.17
32.62
61.03
77.79
84.27
84.96
84.26
84.41
85.47
86.71
87.54
87.13
83.66
73.94
54.50
23.67
-16.09
-57.83
-92.17
-110.75
-109.48
-89.27
-55.75
-16.86
19.53
47.11
61.91
62.92
51.84
31.52
5.31
-24.13
-55.02
-85.87
-114.91
-138.76
-153.58
-156.06
-145.17
-123.11
-94.62
-64.74
-37.11
-13.17
7.48
25.42
40.69
52.56
60.12
62.39
59.00
50.28
36.73
20.12
3.42
-9.76
-16.18
-14.25
-5.46
6.06
15.80
20.24
18.19
9.61
-5.56
-27.80
-56.95
-89.78
-119.00
-134.46
-127.11
-93.94
-40.04
23.99
86.79
140.90
184.98
222.30
256.12
287.22
313.29
330.55
336.50
330.89
315.22
291.28
260.62
224.19
182.27
135.31
84.85
33.50
-14.55
-54.63
-82.59
-96.06
-96.16
-86.61
-71.81
-55.03
-38.41
-23.42
-11.83
-6.41
-9.62
-22.19
-41.88
-63.94
-83.27
-96.41
-102.89
-104.86
-105.83
-109.34
-117.49
-130.58
-147.03
-164.40
-180.28
-192.72
-200.53
-203.28
-200.84
-193.90
-184.82
-177.65
-177.17
-185.92
-202.10
-219.54
-230.06
-227.66
-211.89
-188.22
-164.93
-148.86
-141.40
-138.11
-131.23
-113.11
-80.41
-35.44
15.48
64.24
104.07
131.91
148.68
158.25
165.54
174.90
188.37
205.72
225.03
243.37
258.30
268.97
275.42
278.20
277.19
270.82
256.60
231.94
195.76
149.72
97.77
45.30
-1.60
-36.77
-54.10
-48.50
-17.37
37.70
110.25
189.10
260.52
311.71
333.35
322.67
283.85
226.59
162.63
102.10
50.83
9.21
-25.74
-57.67
-88.28
-117.09
-142.70
-164.05
-181.53
-196.42
-209.15
-217.99
-220.05
-212.43
-194.90
-170.69
-145.24
-123.55
-108.11
-98.13
-90.32
-81.81
-71.52
-60.69
-51.58
-44.99
-39.92
-33.90
-24.93
-12.38
3.17
21.44
43.39
69.97
99.98
128.21
147.25
150.82
137.19
110.72
78.99
48.60
21.54
-4.28
-31.74
-60.27
-84.78
-98.78
-99.58
-90.65
-79.94
-75.77
-81.64
-94.95
-108.95
-117.18
-117.24
-110.92
-101.91
-92.64
-82.63
-68.97
-49.20
-22.53
9.60
44.29
78.79
110.76
137.63
156.90
166.40
165.61
156.48
143.02
129.45
118.86
111.29
103.94
93.68
79.31
62.78
49.18
43.85
49.48
64.54
83.21
97.86
102.03
93.11
72.85
46.60
20.68
0.11
-13.32
-21.68
-29.63
-41.91
-60.97
-85.61
-111.19
-132.23
-145.20
-150.00
-150.12
-149.40
-149.56
-149.43
-145.32
-134.41
-117.23
-97.13
-78.13
-62.53
-48.79
-33.74
-15.98
2.35
15.93
20.03
14.20
3.92
-1.82
4.68
25.93
57.77
91.69
118.66
132.68
131.78
116.97
90.36
54.75
14.07
-26.97
-62.33
-86.70
-96.84
-92.42
-75.69
-49.80
-18.56
14.34
44.97
69.09
82.07
79.68
60.08
24.16
-23.96
-77.60
-129.14
-171.52
-199.62
-210.64
-204.66
-183.34
-150.03
-109.87
-70.14
-39.01
-23.06
-24.75
-41.08
-64.54
-85.55
-96.34
-93.01
-75.94
-47.93
-12.76
26.12
65.51
102.03
132.03
152.47
162.40
163.79
160.24
155.49
152.19
150.83
151.32
154.02
160.15
171.34
188.40
208.94
227.23
236.23
230.40
208.74
174.76
134.21
92.24
51.41
11.42
-28.62
-68.17
-104.46
-133.15
-150.18
-152.80
-140.09
-113.09
-74.75
-31.05
9.04
34.78
37.31
12.76
-35.77
-98.53
-162.92
-216.97
-251.98
-263.69
-252.31
-220.94
-175.63
-123.99
-73.93
-32.89
-5.68
6.55
6.55
-0.74
-10.49
-19.62
-27.79
-35.74
-43.97
-50.72
-52.17
-44.36
-25.91
0.40
28.61
51.68
65.11
67.95
62.89
53.86
44.12
35.84
30.20
28.40
31.67
39.97
50.71
59.32
60.52
50.82
31.04
6.11
-16.59
-30.66
-32.34
-21.43
-0.63
25.57
51.20
69.67
74.00
58.37
20.53
-36.90
-105.63
-173.72
-228.43
-259.99
-263.18
-238.76
-192.72
-134.80
-75.99
-26.08
8.31
25.76
30.03
27.94
26.77
31.90
45.24
65.51
89.58
113.90
136.07
154.75
170.00
182.06
191.14
196.86
197.81
192.12
177.80
154.14
121.87
83.21
41.66
1.38
-33.52
-59.91
-75.60
-79.44
-71.69
-54.09
-29.62
-2.43
22.63
41.41
51.93
55.06
53.80
51.93
51.48
51.73
50.69
46.15
38.41
29.97
24.48
24.25
28.71
34.77
37.97
35.79
28.35
18.58
10.68
7.35
8.41
11.12
11.21
5.48
-7.08
-25.19
-46.71
-69.30
-91.73
-112.71
-130.16
-140.83
-142.16
-134.03
-119.41
-103.47
-90.21
-80.68
-72.27
-61.30
-45.71
-28.02
-13.98
-9.76
-18.92
-39.47
-64.82
-86.13
-95.28
-88.61
-68.86
-44.19
-24.95
-18.63
-26.73
-43.57
-59.61
-65.87
-58.03
-37.18
-7.70
25.62
59.42
92.28
122.57
147.19
162.28
164.25
151.93
127.88
97.75
68.81
48.28
40.56
45.46
57.39
66.71
63.40
42.33
5.34
-38.30
-75.46
-95.04
-92.29
-70.35
-37.83
-4.74
21.46
36.37
38.73
28.66
6.13
-28.36
-73.07
-123.72
-173.05
-212.29
-233.77
-233.60
-213.09
-177.96
-135.94
-94.16
-57.37
-27.85
-6.82
5.62
10.57
11.29
12.98
21.47
41.02
72.35
112.05
154.47
193.97
227.15
252.82
271.40
284.15
291.47
293.08
287.63
273.41
248.77
213.38
168.93
119.54
70.98
28.51
-4.47
-27.81
-43.39
-54.37
-63.83
-74.14
-86.10
-98.45
-108.26
-111.48
-105.18
-89.34
-67.84
-47.50
-34.60
-31.76
-36.02
-40.87
-39.68
-29.77
-14.22
0.19
6.63
2.45
-10.17
-25.83
-39.59
-49.78
-58.53
-69.37
-84.66
-104.37
-125.70
-144.97
-158.62
-164.61
-161.53
-149.48
-129.56
-104.07
-76.12
-48.40
-22.76
0.07
19.60
34.85
43.93
45.64
40.61
32.22
24.65
19.96
16.25
8.68
-6.80
-30.62
-58.10
-81.44
-93.23
-89.83
-73.31
-49.38
-24.98
-5.67
5.16
5.81
-4.28
-25.37
-55.99
-92.30
-127.51
-153.90
-165.00
-158.39
-136.89
-106.78
-74.91
-45.31
-17.92
11.25
46.41
89.62
139.57
191.65
239.18
275.78
296.91
300.80
289.61
268.70
245.23
226.24
215.37
211.61
210.52
206.51
195.97
178.91
158.19
137.68
120.28
106.80
96.33
86.25
72.98
52.50
21.84
-19.78
-69.13
-119.99
-166.26
-204.51
-235.73
-263.30
-289.06
-310.25
-320.02
-310.75
-279.51
-230.74
-174.67
-121.95
-77.94
-40.91
-4.29
36.87
81.82
123.86
154.64
169.55
170.21
163.63
157.30
154.76
154.77
153.05
145.89
132.05
113.12
90.54
64.19
32.89
-3.98
-44.08
-81.66
-109.07
-119.88
-111.89
-88.78
-59.50
-36.44
-31.35
-51.10
-94.14
-149.52
-199.85
-226.91
-218.96
-175.76
-108.55
-35.75
24.68
61.47
73.37
67.24
53.68
43.08
42.37
54.82
79.51
112.30
146.21
172.18
181.42
168.62
134.66
86.82
36.66
-4.27
-28.87
-36.57
-31.75
-21.01
-9.82
-0.74
6.17
12.25
18.41
24.13
27.17
24.46
14.42
-1.37
-17.94
-28.68
-28.52
-16.90
1.00
16.19
20.67
11.65
-7.54
-29.67
-48.43
-61.74
-71.82
-82.08
-93.52
-103.42
-107.11
-101.21
-86.32
-67.51
-52.29
-47.93
-58.47
-82.83
-114.93
-145.54
-164.73
-164.31
-141.21
-98.69
-45.41
7.17
48.99
74.82
85.13
84.85
80.34
76.29
74.70
75.34
76.47
77.13
76.96
75.64
72.77
67.18
57.73
44.37
28.47
13.20
2.54
0.21
8.58
27.85
55.01
84.97
111.68
129.75
135.66
128.33
108.26
77.06
37.88
-4.45
-42.93
-69.56
-78.59
-69.55
-48.65
-27.22
-17.56
-27.39
-57.37
-99.93
-142.75
-174.56
-188.88
-185.78
-170.61
-149.55
-126.40
-101.57
-72.93
-39.11
-1.97
33.67
62.49
81.88
93.22
101.48
111.61
125.63
140.92
151.12
149.74
132.52
99.55
55.47
8.40
-33.09
-62.45
-77.16
-79.37
-74.19
-68.06
-65.70
-68.19
-73.01
-75.89
-73.08
-63.45
-48.86
-32.29
-16.53
-2.01
12.94
29.69
47.51
62.77
70.07
65.16
47.44
20.73
-7.66
-29.96
-40.76
-37.85
-23.24
-2.02
19.39
35.06
41.10
36.88
24.86
9.15
-6.44
-20.02
-32.79
-47.20
-64.50
-82.65
-96.15
-97.65
-81.69
-47.32
1.24
55.95
108.13
150.37
178.09
189.94
187.25
173.72
154.50
135.34
121.01
113.30
109.12
101.44
81.21
42.31
-14.48
-80.27
-140.02
-178.98
-188.90
-171.43
-136.94
-98.74
-67.35
-46.81
-35.32
-28.90
-25.37
-24.65
-26.38
-27.80
-23.90
-10.10
13.77
41.83
64.03
70.95
59.07
32.03
-1.83
-33.82
-59.13
-78.03
-93.48
-107.68
-120.03
-127.12
-124.80
-111.22
-86.76
-53.59
-13.62
32.20
82.07
132.02
175.17
203.40
211.13
198.49
170.67
134.35
94.04
50.56
2.90
-47.44
-93.09
-122.31
-124.72
-97.93
-50.08
3.65
47.11
70.91
75.22
67.36
56.56
48.43
43.28
37.59
28.53
15.77
2.25
-8.23
-13.85
-14.98
-13.32
-9.36
-1.89
11.35
30.75
53.27
72.49
81.13
75.02
55.59
30.00
7.14
-6.12
-8.05
-1.87
6.33
10.65
7.70
-3.36
-21.48
-44.46
-69.20
-91.30
-105.79
-109.23
-101.87
-87.88
-74.16
-66.98
-69.09
-79.31
-93.36
-106.32
-113.91
-113.30
-102.71
-81.42
-50.64
-13.89
23.05
54.07
74.58
83.41
82.77
76.65
68.63
60.68
53.05
44.70
34.49
22.25
8.90
-3.37
-12.44
-17.29
-18.70
-18.35
-17.96
-18.23
-19.22
-21.67
-27.62
-39.45
-57.55
-78.59
-95.01
-97.95
-81.96
-48.08
-4.33
38.11
69.80
87.46
93.43
92.18
86.86
77.90
64.68
48.13
32.97
25.95
32.16
50.68
73.69
89.66
88.30
65.26
23.57
-27.82
-78.79
-120.83
-148.34
-157.97
-148.04
-119.18
-75.78
-26.69
16.84
44.82
53.00
44.93
30.02
18.71
16.79
23.71
33.08
37.43
32.70
20.22
5.75
-4.29
-6.91
-3.62
1.15
3.19
1.56
-0.47
3.41
18.58
46.70
84.07
123.10
155.05
172.90
173.25
156.36
125.49
85.03
39.60
-6.60
-50.17
-89.00
-122.30
-150.75
-175.86
-198.59
-218.37
-233.11
-239.94
-236.47
-221.81
-196.49
-161.83
-120.13
-74.17
-28.07
13.40
46.34
70.07
88.73
110.13
142.54
189.72
248.58
309.10
359.75
391.64
401.09
389.16
358.81
312.54
253.28
186.25
119.67
64.04
27.90
14.10
18.21
30.12
37.74
31.67
7.93
-31.37
-78.89
-125.36
-162.41
-184.50
-190.13
-181.51
-163.42
-141.04
-118.98
-99.93
-85.04
-74.25
-67.57
-66.06
-70.75
-82.31
-99.44
-118.15
-132.63
-137.17
-128.95
-108.75
-80.54
-49.14
-19.14
6.25
23.94
30.18
21.79
-1.54
-35.13
-69.71
-94.35
-102.28
-94.76
-81.00
-73.58
-81.60
-105.76
-137.54
-164.12
-174.53
-165.44
-141.91
-113.97
-91.27
-77.41
-69.10
-58.69
-39.29
-8.73
29.70
69.16
103.31
129.69
150.61
171.25
196.38
226.99
259.22
285.51
297.72
290.32
261.53
214.37
155.70
94.36
39.13
-3.46
-30.65
-43.26
-44.02
-36.22
-22.38
-4.60
14.67
32.31
43.87
45.12
34.34
13.71
-11.53
-34.70
-50.63
-57.21
-56.03
-51.34
-48.07
-50.16
-57.99
-68.63
-76.39
-75.20
-61.46
-35.13
-0.85
34.14
61.95
75.89
72.09
50.38
13.63
-32.61
-80.50
-121.35
-147.82
-156.45
-148.93
-131.81
-113.56
-101.62
-98.79
-102.10
-104.62
-98.61
-80.03
-50.92
-19.93
1.35
3.21
-17.22
-53.08
-89.98
-111.74
-107.72
-78.09
-34.17
6.80
29.12
25.55
0.15
-34.17
-60.22
-63.74
-38.32
12.83
78.68
144.15
194.74
221.03
221.11
200.41
168.89
137.82
116.17
108.94
116.28
133.61
153.55
167.61
169.90
158.50
136.32
109.84
85.48
66.75
52.42
37.99
18.20
-9.37
-42.72
-76.80
-105.75
-125.46
-134.54
-133.90
-125.61
-112.62
-98.21
-85.69
-78.33
-78.29
-85.33
-97.06
-108.99
-116.22
-115.37
-104.58
-83.32
-52.52
-14.50
26.43
64.67
94.03
109.37
108.39
92.20
65.84
36.61
11.33
-6.69
-19.07
-30.44
-45.36
-64.57
-82.91
-91.94
-84.98
-62.12
-32.15
-8.52
-2.29
-16.34
-43.37
-69.46
-80.95
-69.58
-34.39
19.60
84.15
149.94
206.78
244.14
252.46
226.18
166.62
82.98
-9.64
-94.74
-158.57
-193.56
-198.09
-175.88
-134.53
-83.72
-34.07
4.75
26.81
32.34
27.21
20.81
21.24
31.62
48.90
65.77
75.48
74.91
66.34
55.04
46.11
40.75
35.95
26.35
7.42
-21.20
-55.72
-89.52
-115.63
-129.28
-129.33
-116.85
-92.97
-58.08
-11.77
43.96
102.04
150.03
173.03
159.51
107.57
28.73
-55.14
-119.39
-146.59
-133.88
-93.44
-46.72
-14.74
-9.23
-27.76
-56.76
-78.10
-77.78
-51.67
-6.43
44.23
85.43
106.21
101.57
72.37
24.27
-34.05
-92.13
-138.96
-166.01
-170.09
-156.00
-135.57
-123.56
-130.85
-159.72
-203.27
-248.48
-282.05
-295.52
-287.18
-261.28
-225.58
-187.77
-153.62
-126.20
-105.12
-87.13
-67.50
-41.68
-6.95
36.98
88.93
147.13
209.49
273.03
332.75
381.73
413.28
423.42
413.69
391.46
368.58
357.09
365.43
394.91
438.75
483.71
513.28
512.39
472.76
396.17
295.03
188.71
96.79
32.51
-1.47
-12.31
-12.42
-13.47
-22.83
-42.23
-69.97
-103.74
-141.66
-181.57
-219.30
-248.71
-262.86
-257.58
-233.86
-198.24
-160.20
-127.99
-104.86
-88.58
-73.57
-55.46
-35.17
-19.07
-16.08
-32.58
-67.37
-110.68
-148.09
-167.19
-163.64
-142.19
-113.57
-87.89
-69.53
-55.77
-40.77
-20.25
6.13
35.16
63.06
87.75
108.57
124.19
130.71
122.08
93.73
46.67
-10.76
-64.90
-102.16
-115.57
-107.51
-87.93
-69.58
-61.73
-66.16
-77.81
-88.82
-92.94
-88.75
-79.73
-71.47
-68.77
-73.82
-85.67
-101.53
-117.34
-128.91
-133.22
-128.58
-114.97
-94.29
-70.33
-48.05
-31.50
-22.77
-21.39
-24.30
-26.59
-23.99
-13.99
3.29
25.02
46.38
62.55
70.10
67.72
56.36
38.75
19.78
6.11
4.64
20.07
52.12
94.84
138.25
172.36
190.42
191.54
180.12
162.77
144.84
128.19
112.01
93.77
71.69
46.01
18.79
-7.06
-29.54
-47.90
-62.33
-72.68
-78.50
-77.76
-68.12
-48.33
-19.73
13.66
45.88
71.63
88.67
98.09
103.12
106.50
108.72
108.02
102.43
91.86
79.44
69.87
65.79
66.21
66.42
61.15
48.53
31.63
15.76
4.28
-4.82
-18.54
-44.05
-83.46
-130.41
-171.76
-194.04
-189.54
-159.45
-113.09
-63.53
-22.63
0.72
1.99
-19.25
-59.25
-109.85
-160.34
-199.73
-220.41
-220.74
-204.99
-180.59
-154.24
-129.13
-104.39
-77.48
-46.75
-13.50
19.00
47.40
71.43
94.57
122.37
158.56
201.47
243.56
274.62
287.24
280.54
261.15
238.86
220.30
205.06
185.73
153.29
103.35
39.73
-27.04
-84.51
-124.13
-143.90
-147.77
-142.62
-134.69
-127.80
-122.97
-119.61
-116.87
-114.59
-113.05
-112.49
-112.67
-112.44
-110.18
-103.84
-92.35
-75.81
-55.65
-34.42
-14.22
3.63
18.85
32.27
45.30
58.88
73.31
87.19
98.16
104.05
103.31
96.58
86.41
75.59
66.00
57.67
49.38
40.09
29.99
20.18
11.30
2.73
-7.62
-21.77
-39.45
-58.24
-74.59
-85.95
-92.87
-98.52
-106.60
-118.41
-131.10
-138.96
-137.21
-125.39
-108.36
-94.15
-88.77
-92.56
-99.46
-99.68
-85.06
-53.97
-11.49
33.16
71.48
100.02
121.32
140.58
161.91
185.15
205.74
218.54
220.73
213.61
201.55
188.99
178.22
168.45
157.54
144.24
129.01
113.35
98.54
83.85
66.02
40.88
5.76
-38.12
-85.26
-126.80
-153.51
-158.74
-140.72
-103.52
-55.50
-7.20
31.74
53.56
54.50
34.39
-2.86
-48.98
-93.45
-125.86
-139.45
-133.26
-113.03
-88.95
-72.03
-70.18
-84.34
-108.30
-130.52
-139.61
-128.45
-97.56
-54.97
-11.90
22.07
42.73
52.02
55.52
58.05
61.90
65.85
67.04
63.10
53.25
38.85
22.57
8.11
-0.70
-0.60
9.37
26.99
47.04
63.26
71.48
71.08
65.42
59.21
55.88
55.48
54.36
47.38
28.96
-4.22
-51.73
-108.81
-166.58
-214.26
-242.82
-247.43
-228.44
-191.49
-144.67
-95.47
-49.37
-9.74
21.55
43.49
57.30
66.59
76.28
90.75
111.25
134.03
151.23
153.94
136.49
98.94
47.16
-9.50
-61.18
-100.40
-124.00
-132.87
-130.69
-122.51
-112.98
-105.49
-101.08
-98.67
-95.97
-90.82
-82.05
-69.91
-56.44
-43.99
-34.24
-26.18
-15.27
5.04
41.54
98.03
172.39
254.89
330.25
382.06
398.59
376.70
322.36
247.92
167.21
91.18
25.99
-26.09
-64.78
-90.56
-104.38
-108.63
-107.71
-107.52
-113.44
-128.19
-149.87
-172.06
-186.19
-185.06
-166.55
-135.44
-101.92
-77.83
-70.91
-81.87
-104.17
-127.56
-142.33
-142.75
-127.47
-98.01
-57.17
-8.38
44.02
94.46
136.63
165.83
181.03
185.99
187.44
191.57
200.57
211.66
219.18
218.39
208.98
195.22
183.12
176.38
173.40
168.31
154.37
128.38
93.10
55.64
23.27
-0.79
-19.33
-38.72
-64.44
-97.13
-131.77
-160.50
-177.09
-181.08
-178.45
-177.76
-185.90
-203.94
-226.46
-244.22
-248.62
-234.57
-202.28
-155.94
-101.41
-45.02
7.01
49.04
76.86
88.88
86.56
73.94
55.37
33.78
9.95
-16.52
-46.05
-77.02
-105.97
-128.39
-140.02
-138.16
-122.35
-94.81
-59.33
-21.06
14.50
42.61
60.43
67.66
66.11
58.33
45.65
28.08
5.26
-21.67
-48.10
-66.55
-69.87
-55.22
-26.88
3.58
21.40
13.68
-25.73
-94.09
-180.91
-270.88
-347.87
-398.36
-413.94
-392.83
-340.66
-268.94
-192.18
-124.21
-74.13
-44.88
-33.16
-31.95
-33.24
-30.20
-18.26
5.02
40.46
87.32
143.48
205.32
267.93
326.25
376.40
416.48
446.85
468.84
483.92
492.49
493.69
486.01
468.16
439.82
402.31
358.34
311.27
264.22
219.36
177.61
138.83
102.40
67.80
35.07
4.76
-22.24
-45.13
-63.55
-77.68
-88.21
-96.05
-102.04
-106.71
-110.26
-112.63
-113.69
-113.37
-111.75
-109.05
-105.60
-101.67
-97.49
-93.18
-88.81
-84.38
-79.93
-75.45
-70.99
-66.59
-62.27
-58.06
-53.95
-49.98
-46.15
-42.47
-38.95
-35.56
-32.32
-29.26
-26.38
-23.70
-21.21
-18.92
-16.82
-14.92
-13.21
-11.68
-10.31
-9.11
-8.05
-7.12
-6.30
-5.59
-4.97
-4.43
-3.97
-3.57
-3.23
-2.93
-2.67
-2.45
-2.25
-2.08
-1.93
-1.79
-1.67
-1.57
-1.47
-1.38
-1.31
-1.24
-1.17
-1.11
-1.05
-1.00
-0.96
-0.91
-0.87
-0.84
-0.80
-0.77
-0.74
-0.71
-0.68
-0.65
-0.63
-0.61
-0.58
-0.56
-0.54
-0.53
-0.51
-0.49
-0.47
-0.46
-0.44
-0.43
-0.41
-0.40
-0.39
-0.38
-0.37
-0.35
-0.34
-0.33
-0.32
-0.31
-0.31
-0.30
-0.29
-0.28
-0.27
-0.26
-0.26
-0.25
-0.24
-0.24
-0.23
-0.23
-0.22
-0.21
-0.21
-0.20
-0.20
-0.19
-0.19
-0.18
-0.18
-0.17
-0.17
-0.16
-0.16
-0.16
-0.15
-0.15
-0.15
-0.15
-0.16
-0.16
-0.18
-0.18
-0.19
-0.19
-0.19
-0.17
-0.14
-0.11
-0.05
0.01
0.08
0.17
0.25
0.34
0.43
0.51
0.59
0.67
0.75
0.82
0.91
0.99
1.08
1.18
1.28
1.39
1.51
1.63
1.78
1.97
2.19
2.44
2.71
2.94
3.16
3.35
3.55
3.82
4.20
4.72
5.36
6.09
6.81
7.53
8.23
8.98
9.83
10.84
12.02
13.34
14.72
16.03
17.27
18.45
19.70
21.21
23.11
25.53
28.43
31.75
35.21
38.70
42.14
45.49
48.74
51.61
53.56
53.74
51.22
45.24
35.60
22.75
7.85
-7.40
-21.66
-34.02
-44.28
-52.82
-60.21
-66.77
-72.40
-76.75
-78.91
-78.78
-76.72
-73.75
-70.98
-69.14
-68.46
-68.97
-70.83
-74.04
-78.08
-80.95
-79.36
-69.77
-50.27
-22.09
10.31
40.75
63.90
77.09
81.13
78.81
73.34
66.99
60.79
55.34
51.76
51.79
56.56
64.96
72.68
73.31
61.26
34.59
-3.16
-43.84
-78.16
-99.48
-105.90
-100.76
-90.06
-79.18
-71.11
-66.32
-63.83
-62.25
-60.05
-55.39
-45.75
-30.44
-10.20
12.08
32.35
46.90
53.83
53.53
48.00
39.36
29.31
19.11
10.18
4.22
2.68
5.65
11.39
17.09
19.64
17.58
11.46
3.75
-2.28
-3.72
1.04
11.81
26.66
41.46
50.74
49.09
33.70
6.64
-24.49
-48.61
-55.57
-40.73
-7.56
33.67
70.33
92.68
97.29
87.51
70.09
51.17
34.29
20.37
9.69
2.80
0.02
0.55
1.05
-2.84
-14.40
-33.22
-54.65
-71.52
-77.65
-70.60
-52.32
-27.78
-2.08
20.86
38.69
49.02
49.13
37.44
15.59
-10.22
-30.94
-39.69
-35.55
-23.33
-10.85
-4.17
-4.77
-10.41
-18.49
-29.33
-45.85
-70.53
-100.16
-126.25
-138.17
-128.65
-98.34
-55.77
-13.04
19.92
39.04
46.34
46.44
43.42
38.38
29.86
16.36
-1.73
-21.36
-37.57
-45.53
-43.24
-32.24
-17.86
-7.57
-7.71
-20.42
-42.15
-64.82
-79.37
-79.85
-66.26
-44.23
-21.79
-5.42
2.32
2.47
-1.93
-7.36
-10.62
-8.72
0.70
18.80
44.37
73.48
101.10
122.26
134.38
137.97
135.63
130.12
123.46
116.64
110.17
104.80
101.50
101.00
103.01
106.45
108.49
106.93
100.51
89.44
74.94
58.53
41.57
24.04
6.68
-10.77
-28.41
-45.93
-62.43
-76.71
-87.71
-94.96
-98.66
-99.56
-99.03
-98.27
-98.15
-98.99
-100.52
-102.24
-103.64
-104.25
-103.60
-101.53
-97.81
-92.13
-84.21
-73.86
-61.02
-45.94
-29.31
-11.91
5.25
21.13
34.71
45.09
51.60
53.90
52.02
46.37
37.80
27.58
17.13
7.84
0.84
-2.88
-2.87
0.82
7.76
16.37
26.17
36.51
46.70
55.98
64.03
70.32
74.55
76.72
77.16
76.58
75.73
76.24
77.37
78.38
78.00
74.97
68.66
59.54
49.11
39.51
32.75
29.86
31.07
35.01
39.79
43.88
46.42
47.51
47.58
46.72
43.37
38.04
31.07
23.32
15.41
6.84
-4.64
-22.16
-48.02
-81.65
-118.70
-153.31
-180.43
-198.43
-209.01
-215.05
-217.77
-215.26
-203.70
-180.14
-146.24
-108.29
-74.75
-52.06
-41.66
-39.60
-39.67
-36.42
-27.58
-14.52
-0.15
13.20
24.83
36.19
48.98
63.62
78.84
92.11
100.58
102.97
99.64
92.65
84.83
78.52
75.04
74.73
77.08
80.61
83.21
81.61
73.10
57.10
36.31
16.41
3.91
3.28
14.12
31.72
49.06
60.23
62.88
58.47
50.89
43.99
39.47
36.77
34.55
32.05
29.70
28.17
26.91
23.58
14.75
-2.36
-27.75
-57.69
-86.17
-107.65
-119.67
-123.24
-121.11
-114.77
-103.25
-84.12
-56.15
-21.80
12.73
39.70
53.82
54.67
47.05
38.02
34.07
38.61
51.11
68.00
83.92
93.20
90.07
73.09
44.63
10.48
-21.85
-46.25
-59.83
-63.43
-60.43
-54.28
-46.75
-38.06
-28.00
-16.78
-5.75
3.40
9.72
13.10
14.67
15.51
15.95
15.20
12.02
5.16
-5.89
-20.03
-35.68
-50.80
-63.52
-73.04
-80.09
-86.61
-94.63
-104.45
-113.43
-116.47
-107.87
-84.45
-47.98
-5.42
33.76
61.44
74.04
73.39
64.79
54.04
45.14
39.77
37.99
39.80
44.93
52.03
57.89
58.06
49.05
30.48
6.34
-16.69
-32.36
-37.60
-33.44
-23.80
-13.13
-4.31
1.86
6.02
8.90
10.66
10.99
9.86
7.86
6.12
5.71
7.21
10.31
14.00
17.15
18.94
19.27
18.69
18.29
19.18
22.06
26.88
33.08
39.75
45.98
51.16
54.97
57.35
58.31
57.68
55.11
50.24
42.80
32.86
21.21
8.65
-3.74
-14.96
-24.28
-31.36
-36.17
-38.98
-40.44
-40.64
-39.96
-38.72
-37.20
-35.69
-34.36
-33.27
-32.39
-31.61
-30.61
-29.38
-27.99
-26.70
-25.86
-25.69
-26.25
-27.36
-28.64
-29.68
-30.34
-30.70
-31.11
-31.98
-33.68
-35.47
-36.32
-35.00
-30.58
-23.05
-13.33
-3.22
5.14
10.08
10.85
7.86
2.36
-3.67
-9.73
-15.79
-22.28
-29.81
-38.63
-48.76
-60.04
-71.93
-83.07
-90.91
-91.81
-82.54
-62.48
-33.59
-1.11
28.51
50.24
62.20
65.75
64.05
59.87
54.38
47.60
39.49
31.08
24.48
21.58
22.76
26.34
29.16
28.37
22.67
13.09
2.45
-6.23
-11.05
-11.66
-8.78
-3.72
1.76
5.91
6.73
2.31
-7.95
-22.48
-37.33
-47.46
-48.69
-40.95
-28.07
-16.00
-8.65
-6.28
-5.51
-1.28
9.36
25.10
40.28
47.84
43.36
27.87
7.91
-8.37
-15.25
-12.47
-5.57
-2.82
-10.12
-27.66
-50.15
-69.73
-80.49
-80.77
-72.73
-59.46
-42.90
-23.44
-1.37
21.04
39.19
47.63
42.93
25.64
0.49
-25.82
-47.05
-59.08
-60.64
-52.51
-36.63
-15.32
8.18
31.30
51.75
68.00
79.25
85.68
88.15
87.74
85.45
82.09
78.14
73.68
68.68
63.09
57.16
51.30
46.03
41.59
38.05
35.24
32.74
30.10
27.01
23.64
20.39
17.72
15.91
14.90
14.30
13.57
12.63
11.15
9.48
8.31
8.24
9.46
11.62
13.95
15.56
15.89
14.99
13.62
12.86
13.61
16.16
19.99
24.01
27.10
28.42
27.83
25.96
23.84
22.60
23.41
27.27
34.37
43.25
50.35
50.68
39.80
16.14
-17.42
-54.15
-86.07
-107.26
-116.08
-115.25
-109.64
-103.47
-98.73
-95.36
-92.65
-90.21
-87.66
-83.70
-75.66
-60.41
-36.33
-4.92
29.10
59.18
79.66
88.01
85.42
75.70
63.56
52.81
45.71
43.22
45.58
52.56
62.94
74.19
82.63
84.42
77.04
60.59
38.19
14.73
-4.96
-18.33
-25.37
-28.10
-28.99
-29.66
-30.30
-30.02
-27.95
-24.01
-19.47
-15.88
-14.65
-16.35
-20.49
-25.35
-28.72
-28.93
-25.88
-21.87
-20.24
-24.38
-36.00
-53.83
-73.67
-89.86
-97.45
-91.87
-75.05
-51.74
-27.48
-6.61
8.95
19.54
26.69
32.06
36.89
41.58
46.77
52.61
58.57
63.15
64.39
60.97
53.00
42.24
30.90
21.08
13.28
6.79
0.56
-6.07
-12.47
-17.50
-20.75
-23.76
-27.95
-34.51
-42.78
-50.12
-53.17
-49.59
-39.83
-27.41
-17.57
-14.52
-19.61
-30.51
-41.78
-48.79
-48.86
-42.39
-31.97
-20.79
-10.96
-3.04
3.49
9.30
14.52
18.83
21.42
21.87
20.53
18.39
16.67
16.38
17.67
19.96
22.23
23.45
23.15
21.57
19.59
18.28
18.54
20.67
24.27
28.40
32.14
34.93
36.72
37.97
39.11
40.41
41.47
41.24
38.32
31.57
20.58
5.94
-10.62
-27.22
-42.27
-54.70
-64.33
-71.53
-76.83
-80.80
-84.51
-88.78
-94.54
-101.62
-107.82
-109.06
-100.83
-80.53
-49.41
-12.88
21.51
46.70
59.18
59.89
53.17
44.32
37.52
34.56
35.00
37.15
38.92
38.88
36.30
31.60
25.97
21.25
19.35
21.90
29.80
42.54
57.67
70.57
75.20
66.35
42.85
9.49
-23.35
-43.18
-40.65
-13.84
30.34
78.61
116.66
134.54
129.81
107.12
75.29
43.00
15.99
-3.76
-17.21
-26.37
-32.90
-37.34
-39.89
-40.89
-41.63
-44.22
-50.25
-59.69
-70.39
-78.84
-81.84
-77.60
-66.57
-51.33
-35.47
-22.03
-12.52
-6.50
-1.99
3.14
10.28
19.47
29.26
37.34
41.63
41.34
37.40
32.31
29.02
29.98
36.18
46.59
58.20
67.10
69.72
63.98
49.53
27.16
-2.49
-37.92
-75.51
-111.50
-142.77
-167.98
-187.68
-203.50
-216.92
-227.84
-233.87
-230.84
-214.47
-182.79
-138.17
-87.41
-39.69
-3.06
18.54
26.17
24.20
17.47
8.95
-0.65
-11.65
-23.73
-35.38
-43.44
-45.16
-39.51
-27.26
-10.44
8.51
28.04
46.86
64.73
81.92
98.32
112.93
124.41
131.34
132.80
128.98
121.05
111.01
100.87
91.96
84.52
78.41
73.04
67.70
62.08
56.15
50.29
44.84
41.23
37.97
34.27
29.41
22.83
14.34
4.04
-7.57
-19.93
-32.49
-45.14
-57.16
-68.17
-77.98
-86.57
-94.00
-100.43
-106.06
-111.24
-116.57
-121.84
-127.02
-132.18
-137.37
-142.62
-147.95
-153.38
-158.95
-164.95
-170.82
-176.23
-180.92
-184.61
-186.89
-187.10
-184.18
-176.45
-166.78
-155.84
-144.11
-131.95
-119.67
-107.47
-95.43
-83.55
-71.89
-60.68
-49.53
-38.42
-27.45
-16.76
-6.41
3.74
13.84
23.92
33.66
42.98
51.35
58.17
63.00
65.95
67.63
69.12
71.56
75.79
82.50
91.68
102.91
115.60
129.28
143.75
159.06
175.51
193.66
214.26
237.73
263.51
289.57
312.47
328.10
333.14
326.27
308.82
284.25
256.80
230.10
206.32
186.12
169.26
155.32
143.89
134.69
127.28
121.07
115.48
110.10
104.81
99.57
94.38
89.12
83.53
77.26
69.89
61.06
50.53
38.43
25.33
12.16
-0.08
-10.68
-19.56
-27.14
-34.02
-40.63
-46.99
-52.79
-57.68
-61.59
-64.73
-67.46
-70.01
-72.25
-73.71
-73.70
-71.56
-66.85
-59.48
-49.73
-38.23
-25.86
-13.59
-2.39
6.82
13.39
16.84
17.06
14.18
8.55
0.62
-9.12
-20.17
-31.92
-43.67
-54.61
-63.96
-71.08
-75.55
-77.25
-76.22
-72.69
-67.05
-59.75
-51.35
-42.41
-33.30
-24.27
-15.38
-6.67
1.72
9.56
16.59
22.55
27.30
30.80
33.09
34.31
34.69
34.58
34.42
34.61
35.30
36.40
37.54
38.31
38.49
38.18
37.74
37.66
38.30
39.72
41.72
43.85
45.48
45.97
44.64
40.94
34.54
25.47
14.17
1.40
-11.93
-25.10
-37.64
-49.38
-60.17
-69.68
-77.33
-82.33
-84.11
-82.54
-78.11
-71.73
-64.55
-57.54
-51.37
-46.47
-43.19
-41.90
-42.89
-46.19
-51.39
-57.64
-63.85
-69.02
-72.59
-74.53
-75.20
-74.95
-73.89
-71.74
-68.06
-62.50
-55.17
-46.66
-37.97
-30.28
-24.63
-21.73
-21.81
-24.47
-28.72
-33.04
-35.66
-34.96
-29.97
-20.67
-7.96
6.70
21.70
35.69
47.80
57.60
65.09
70.36
73.46
74.25
72.46
67.87
60.57
51.24
41.10
31.67
24.22
19.30
16.69
15.57
14.99
14.29
13.35
12.40
11.67
11.22
10.86
10.36
9.67
8.96
8.61
8.97
10.09
11.70
13.32
14.40
14.57
13.64
11.49
8.04
3.11
-3.45
-11.62
-21.06
-31.01
-40.44
-48.31
-53.85
-56.72
-57.07
-55.26
-51.60
-46.27
-39.34
-30.88
-21.22
-10.83
-0.36
9.63
18.74
26.76
33.43
38.42
41.28
41.67
39.46
34.97
28.88
22.03
15.28
9.19
3.95
-0.51
-4.27
-7.31
-9.34
-9.94
-8.84
-6.11
-2.19
2.26
6.59
10.41
13.68
16.61
19.36
21.92
23.95
24.96
24.47
22.23
18.37
13.41
8.10
3.22
-0.68
-3.35
-4.77
-5.11
-4.62
-3.56
-2.24
-1.04
-0.33
-0.36
-1.06
-2.09
-2.98
-3.35
-3.12
-2.63
-2.45
-3.14
-5.08
-8.27
-12.51
-17.43
-22.58
-27.42
-31.19
-32.93
-31.59
-26.48
-17.62
-5.96
6.78
18.64
28.06
34.29
37.41
38.06
36.98
34.73
31.68
28.20
24.82
22.12
20.58
20.24
20.69
21.20
21.06
19.82
17.39
14.00
9.95
5.64
1.39
-2.46
-5.67
-8.03
-9.51
-10.23
-10.42
-10.37
-10.37
-10.60
-11.20
-12.09
-13.06
-13.74
-13.83
-13.19
-11.99
-10.62
-9.53
-8.94
-8.72
-8.42
-7.49
-5.57
-2.76
0.43
3.27
5.10
5.57
4.66
2.66
-0.11
-3.27
-6.46
-9.18
-10.80
-10.60
-8.09
-3.17
3.73
11.73
19.76
26.86
32.47
36.48
39.17
41.13
42.97
45.25
48.21
51.80
55.64
59.23
62.09
63.89
64.36
63.18
59.93
54.14
45.64
34.85
22.80
10.80
-0.07
-9.51
-18.08
-26.74
-36.24
-46.54
-56.81
-65.84
-72.69
-77.03
-79.20
-79.80
-79.27
-77.68
-74.84
-70.57
-64.98
-58.48
-51.61
-44.77
-38.10
-31.45
-24.53
-17.09
-9.11
-0.85
7.23
14.57
20.62
25.00
27.51
28.18
27.23
25.06
22.10
18.80
15.54
12.55
9.87
7.38
4.91
2.29
-0.48
-3.26
-5.81
-7.84
-9.18
-9.71
-9.42
-8.38
-6.75
-4.79
-2.84
-1.19
0.01
0.82
1.46
2.15
2.91
3.50
3.56
2.77
1.10
-1.19
-3.63
-5.88
-7.78
-9.48
-11.17
-12.90
-14.52
-15.73
-16.26
-16.03
-15.22
-14.11
-13.05
-12.20
-11.59
-11.18
-10.97
-11.04
-11.55
-12.54
-13.99
-15.71
-17.48
-19.09
-20.43
-21.44
-22.09
-22.30
-21.97
-21.08
-19.78
-18.31
-17.01
-16.11
-15.60
-15.35
-15.11
-14.54
-13.38
-11.35
-8.25
-4.05
1.03
6.52
11.85
16.64
20.84
24.78
28.92
33.50
38.26
42.46
45.20
45.86
44.32
41.06
36.78
32.25
27.91
23.91
20.20
16.65
13.18
9.82
6.68
3.76
0.97
-1.85
-4.80
-7.89
-11.02
-13.99
-16.55
-18.46
-19.60
-19.95
-19.59
-18.61
-17.03
-15.01
-12.66
-10.07
-7.12
-3.66
0.44
5.20
10.54
16.25
21.73
26.54
30.57
34.20
38.05
42.59
48.01
54.21
60.94
67.07
71.50
73.53
73.22
71.04
67.51
63.18
58.70
54.86
51.16
46.83
41.23
34.23
25.86
15.98
4.38
-8.72
-22.59
-37.83
-55.06
-74.45
-95.29
-116.83
-139.25
-163.87
-192.68
-217.25
-229.63
-226.04
-209.10
-184.06
-154.85
-123.87
-93.01
-63.96
-37.80
-16.28
-0.52
9.38
14.36
15.78
14.84
12.71
10.76
10.38
11.39
12.92
14.00
14.33
14.18
13.87
13.72
14.13
15.80
19.04
24.37
32.44
43.53
56.87
70.50
81.69
88.32
89.83
86.96
81.35
74.60
67.55
60.13
51.84
42.46
32.46
22.78
14.18
6.73
-0.02
-6.65
-13.31
-19.57
-24.47
-26.95
-26.36
-22.67
-16.59
-9.28
-2.04
4.16
8.80
11.85
13.62
14.49
14.53
13.76
12.23
10.04
7.41
4.61
1.88
-0.56
-2.60
-4.12
-5.07
-5.41
-5.25
-4.75
-4.14
-3.60
-3.24
-3.12
-3.21
-3.50
-3.88
-4.28
-4.57
-4.65
-4.50
-4.17
-3.76
-3.45
-3.31
-3.29
-3.30
-3.21
-2.97
-2.67
-2.38
-2.20
-2.14
-2.11
-2.03
-1.85
-1.67
-1.63
-1.87
-2.42
-3.19
-4.01
-4.68
-5.06
-5.07
-4.67
-3.89
-2.83
-1.60
-0.37
0.73
1.64
2.35
2.88
3.23
3.38
3.30
3.02
2.59
2.12
1.66
1.22
0.81
0.45
0.21
0.19
0.43
0.88
1.38
1.78
1.91
1.80
1.53
1.25
1.07
1.02
1.03
1.00
0.79
0.31
-0.44
-1.38
-2.34
-3.14
-3.66
-3.90
-3.93
-3.90
-3.89
-3.88
-3.81
-3.61
-3.26
-2.80
-2.23
-1.54
-0.71
0.25
1.30
2.29
3.13
3.74
4.10
4.24
4.12
3.73
3.06
2.22
1.35
0.60
0.14
-0.01
0.06
0.21
0.28
0.20
-0.00
-0.24
-0.39
-0.34
-0.06
0.34
0.73
0.95
0.91
0.61
0.14
-0.41
-0.96
-1.44
-1.84
-2.18
-2.45
-2.72
-3.02
-3.36
-3.66
-3.82
-3.72
-3.29
-2.60
-1.76
-0.94
-0.22
0.38
0.94
1.51
2.08
2.58
2.91
3.03
2.93
2.66
2.30
1.92
1.53
1.13
0.71
0.28
-0.13
-0.46
-0.64
-0.60
-0.38
-0.07
0.21
0.32
0.24
0.01
-0.28
-0.55
-0.78
-0.99
-1.24
-1.56
-1.93
-2.30
-2.61
-2.85
-3.06
-3.27
-3.50
-3.74
-3.94
-4.05
-4.06
-4.02
-3.93
-3.85
-3.74
-3.51
-3.08
-2.32
-1.20
0.25
1.90
3.55
4.98
6.00
6.55
6.66
6.50
6.22
5.94
5.66
5.30
4.77
4.06
3.27
2.54
1.96
1.47
0.89
-0.06
-1.53
-3.59
-6.14
-9.09
-12.38
-15.96
-19.79
-23.69
-27.36
-30.47
-32.76
-34.13
-34.61
-34.27
-33.12
-31.11
-28.28
-24.81
-21.08
-17.44
-14.07
-10.83
-7.36
-3.27
1.69
7.49
13.98
20.97
28.34
35.98
43.69
51.06
57.48
62.36
65.24
65.96
64.54
61.15
55.92
48.97
40.52
30.99
21.07
11.64
3.52
-2.76
-7.08
-9.71
-11.11
-11.73
-11.87
-11.64
-11.09
-10.31
-9.45
-8.74
-8.45
-8.83
-10.07
-12.14
-14.79
-17.61
-20.11
-21.96
-23.08
-23.63
-23.90
-24.07
-24.18
-23.99
-23.25
-21.75
-19.41
-16.27
-12.40
-7.87
-2.79
2.59
7.89
12.61
16.26
18.58
19.60
19.58
18.94
17.97
16.78
15.34
13.62
11.80
10.19
9.21
9.09
9.78
10.95
12.15
13.01
13.32
13.13
12.53
11.65
10.58
9.38
8.12
6.88
5.61
4.15
2.26
-0.23
-3.23
-6.43
-9.37
-11.73
-13.48
-14.90
-16.34
-17.98
-19.72
-21.18
-21.98
-21.93
-21.07
-19.61
-17.74
-15.51
-12.90
-10.00
-7.05
-4.47
-2.70
-1.97
-2.23
-3.08
-4.04
-4.63
-4.62
-4.05
-3.14
-2.17
-1.37
-0.90
-0.73
-0.79
-0.92
-0.98
-0.86
-0.47
0.27
1.41
2.97
4.93
7.18
9.52
11.68
13.31
14.09
13.77
12.32
9.87
6.79
3.53
0.60
-1.54
-2.59
-2.41
-1.14
0.94
3.39
5.77
7.71
9.04
9.78
10.06
10.08
9.90
9.54
8.90
7.90
6.50
4.71
2.59
0.23
-2.22
-4.59
-6.67
-8.30
-9.40
-10.04
-10.37
-10.67
-11.14
-11.86
-12.77
-13.71
-14.48
-14.94
-15.04
-14.79
-14.22
-13.37
-12.31
-11.10
-9.77
-8.34
-6.83
-5.31
-3.89
-2.75
-2.10
-1.99
-2.31
-2.82
-3.20
-3.26
-2.97
-2.49
-2.02
-1.68
-1.48
-1.33
-1.11
-0.79
-0.39
-0.01
0.33
0.69
1.16
1.81
2.63
3.49
4.21
4.64
4.66
4.28
3.60
2.74
1.86
1.08
0.45
-0.03
-0.42
-0.81
-1.25
-1.76
-2.25
-2.57
-2.58
-2.24
-1.65
-1.04
-0.62
-0.53
-0.76
-1.26
-1.92
-2.65
-3.40
-4.08
-4.63
-4.97
-5.04
-4.82
-4.38
-3.75
-2.98
-2.13
-1.21
-0.29
0.57
1.29
1.88
2.37
2.82
3.27
3.74
4.21
4.71
5.22
5.76
6.29
6.74
6.94
6.74
6.07
5.01
3.79
2.72
2.05
1.90
2.15
2.56
2.89
2.99
2.90
2.79
2.82
3.12
3.71
4.50
5.36
6.16
6.79
7.09
7.02
6.57
5.86
5.06
4.21
3.22
1.85
-0.07
-2.54
-5.25
-7.69
-9.42
-10.30
-10.57
-10.76
-11.43
-12.96
-15.48
-18.92
-23.03
-27.30
-30.92
-32.75
-31.58
-26.70
-18.39
-8.30
0.81
5.85
4.71
-2.77
-14.44
-26.51
-34.89
-36.71
-31.12
-19.20
-3.14
14.72
32.21
47.16
57.14
59.81
53.98
40.71
23.73
8.26
-0.98
-1.87
4.41
14.12
23.00
28.08
28.60
25.64
20.88
15.76
10.91
6.52
2.71
-0.21
-1.82
-1.88
-0.51
1.70
3.96
5.48
5.82
4.96
3.29
1.40
-0.23
-1.40
-2.23
-3.04
-4.19
-5.82
-7.85
-9.92
-11.61
-12.60
-12.76
-12.24
-11.32
-10.32
-9.40
-8.60
-7.84
-7.00
-5.97
-4.71
-3.26
-1.72
-0.25
0.94
1.65
1.77
1.30
0.44
-0.51
-1.33
-1.86
-2.21
-2.56
-3.08
-3.91
-5.02
-6.28
-7.51
-8.51
-9.10
-9.24
-8.97
-8.42
-7.82
-7.38
-7.21
-7.28
-7.45
-7.53
-7.31
-6.64
-5.44
-3.70
-1.53
0.85
3.12
4.96
6.14
6.61
6.50
6.02
5.40
4.82
4.30
3.85
3.48
3.20
3.02
2.91
2.80
2.58
2.23
1.78
1.33
1.00
0.86
0.85
0.89
0.88
0.72
0.43
0.03
-0.43
-0.88
-1.28
-1.64
-1.97
-2.31
-2.72
-3.20
-3.73
-4.21
-4.52
-4.59
-4.38
-3.97
-3.45
-2.91
-2.36
-1.74
-0.94
0.14
1.46
2.90
4.24
5.30
5.95
6.24
6.26
6.09
5.76
5.26
4.55
3.68
2.77
1.96
1.37
1.07
1.02
1.18
1.46
1.76
1.96
1.95
1.68
1.21
0.74
0.47
0.53
0.85
1.19
1.26
0.84
-0.06
-1.30
-2.59
-3.69
-4.44
-4.85
-5.05
-5.18
-5.41
-5.79
-6.28
-6.77
-7.08
-7.05
-6.58
-5.59
-4.09
-2.15
0.06
2.30
4.25
5.73
6.64
7.07
7.17
7.07
6.83
6.40
5.73
4.83
3.85
2.97
2.42
2.30
2.56
3.04
3.54
3.86
3.91
3.76
3.50
3.29
3.18
3.15
3.11
2.98
2.75
2.48
2.28
2.12
1.92
1.53
0.86
-0.04
-1.00
-1.84
-2.46
-2.86
-3.14
-3.44
-3.82
-4.27
-4.71
-5.05
-5.23
-5.25
-5.12
-4.93
-4.77
-4.73
-4.87
-5.19
-5.56
-5.75
-5.53
-4.70
-3.30
-1.51
0.32
1.81
2.68
2.87
2.51
1.86
1.18
0.63
0.24
-0.03
-0.21
-0.28
-0.15
0.29
1.13
2.29
3.65
5.00
6.22
7.22
8.04
8.77
9.38
9.82
9.93
9.57
8.72
7.48
6.03
4.54
3.16
1.93
0.89
0.08
-0.43
-0.62
-0.56
-0.43
-0.40
-0.62
-1.15
-1.89
-2.72
-3.54
-4.29
-5.00
-5.71
-6.48
-7.26
-8.00
-8.58
-8.94
-9.03
-8.86
-8.48
-7.89
-7.04
-5.84
-4.18
-2.06
0.39
2.94
5.28
7.19
8.49
9.19
9.39
9.17
8.67
7.99
7.20
6.38
5.61
4.93
4.36
3.86
3.40
2.94
2.50
2.13
1.90
1.87
2.06
2.42
2.84
3.18
3.32
3.23
2.94
2.52
1.99
1.35
0.55
-0.44
-1.55
-2.65
-3.64
-4.41
-4.93
-5.24
-5.38
-5.37
-5.25
-5.03
-4.78
-4.51
-4.19
-3.72
-2.96
-1.83
-0.34
1.38
3.13
4.73
6.06
7.02
7.61
7.82
7.68
7.23
6.54
5.67
4.72
3.78
2.95
2.32
1.98
1.94
2.12
2.37
2.55
2.52
2.24
1.79
1.25
0.70
0.17
-0.34
-0.81
-1.15
-1.26
-1.04
-0.47
0.32
1.13
1.74
2.00
1.88
1.47
0.87
0.18
-0.52
-1.24
-1.95
-2.62
-3.21
-3.67
-4.00
-4.25
-4.51
-4.86
-5.34
-5.89
-6.35
-6.58
-6.48
-6.07
-5.46
-4.82
-4.21
-3.61
-2.83
-1.73
-0.20
1.64
3.51
5.15
6.33
7.03
7.32
7.40
7.36
7.20
6.88
6.29
5.46
4.42
3.31
2.26
1.37
0.68
0.19
-0.11
-0.31
-0.39
-0.34
-0.11
0.29
0.78
1.17
1.26
0.95
0.26
-0.57
-1.27
-1.63
-1.56
-1.21
-0.80
-0.55
-0.56
-0.84
-1.33
-1.94
-2.64
-3.41
-4.25
-5.08
-5.82
-6.33
-6.53
-6.45
-6.14
-5.71
-5.25
-4.73
-4.06
-3.11
-1.81
-0.17
1.69
3.58
5.32
6.71
7.64
8.03
7.83
7.08
5.91
4.50
3.10
1.89
1.02
0.54
0.40
0.52
0.79
1.13
1.41
1.60
1.65
1.59
1.51
1.48
1.52
1.59
1.57
1.27
0.65
-0.25
-1.25
-2.16
-2.86
-3.35
-3.73
-4.11
-4.53
-4.91
-5.13
-5.12
-4.89
-4.57
-4.30
-4.18
-4.21
-4.27
-4.14
-3.60
-2.51
-0.84
1.19
3.24
4.95
6.04
6.45
6.34
5.94
5.46
4.99
4.49
3.93
3.35
2.82
2.44
2.27
2.23
2.21
2.09
1.84
1.51
1.17
0.92
0.76
0.63
0.46
0.17
-0.20
-0.59
-0.89
-1.01
-0.99
-0.91
-0.96
-1.21
-1.72
-2.36
-3.05
-3.72
-4.38
-5.08
-5.85
-6.58
-7.09
-7.16
-6.63
-5.49
-3.81
-1.81
0.29
2.23
3.83
4.98
5.68
6.01
6.10
6.04
5.90
5.65
5.30
4.83
4.30
3.77
3.29
2.83
2.36
1.84
1.29
0.77
0.34
0.03
-0.22
-0.49
-0.88
-1.44
-2.13
-2.89
-3.59
-4.16
-4.55
-4.79
-4.89
-4.88
-4.75
-4.49
-4.13
-3.73
-3.43
-3.38
-3.65
-4.19
-4.82
-5.25
-5.16
-4.38
-2.83
-0.70
1.70
3.99
5.84
7.05
7.59
7.58
7.20
6.63
5.98
5.30
4.61
3.89
3.14
2.38
1.61
0.88
0.27
-0.15
-0.30
-0.17
0.15
0.52
0.78
0.86
0.76
0.56
0.31
0.03
-0.36
-0.88
-1.49
-2.08
-2.50
-2.71
-2.76
-2.85
-3.11
-3.63
-4.34
-5.10
-5.75
-6.22
-6.56
-6.86
-7.27
-7.81
-8.47
-9.10
-9.50
-9.48
-8.87
-7.59
-5.68
-3.28
-0.57
2.19
4.74
6.84
8.34
9.14
9.28
8.89
8.14
7.29
6.50
5.95
5.67
5.63
5.71
5.72
5.47
4.90
4.04
3.04
2.12
1.49
1.21
1.24
1.43
1.58
1.53
1.22
0.65
-0.08
-0.86
-1.61
-2.26
-2.77
-3.13
-3.33
-3.36
-3.24
-3.02
-2.79
-2.62
-2.55
-2.58
-2.68
-2.79
-2.91
-3.06
-3.27
-3.59
-4.04
-4.62
-5.28
-6.01
-6.76
-7.46
-7.99
-8.22
-7.97
-7.08
-5.47
-3.20
-0.50
2.32
4.93
7.05
8.53
9.36
9.65
9.53
9.11
8.46
7.64
6.67
5.61
4.55
3.67
3.08
2.90
3.09
3.50
3.88
4.02
3.78
3.15
2.25
1.24
0.30
-0.46
-0.98
-1.24
-1.26
-1.14
-1.01
-1.03
-1.35
-1.98
-2.85
-3.80
-4.65
-5.32
-5.82
-6.24
-6.66
-7.11
-7.54
-7.85
-7.96
-7.78
-7.32
-6.55
-5.44
-3.91
-1.95
0.32
2.73
5.01
6.91
8.29
9.15
9.58
9.71
9.66
9.46
9.15
8.72
8.19
7.59
6.96
6.34
5.77
5.26
4.79
4.32
3.81
3.22
2.53
1.77
1.00
0.31
-0.22
-0.59
-0.85
-1.12
-1.52
-2.08
-2.78
-3.50
-4.14
-4.61
-4.92
-5.11
-5.24
-5.38
-5.53
-5.69
-5.81
-5.88
-5.87
-5.73
-5.47
-5.11
-4.74
-4.48
-4.44
-4.68
-5.12
-5.56
-5.74
-5.42
-4.47
-2.95
-1.05
0.98
2.89
4.51
5.74
6.57
6.99
7.07
6.89
6.55
6.14
5.72
5.26
4.73
4.14
3.55
3.03
2.61
2.28
2.01
1.74
1.49
1.26
1.06
0.88
0.68
0.45
0.23
0.08
0.03
0.05
0.05
-0.11
-0.48
-0.98
-1.42
-1.66
-1.59
-1.29
-0.93
-0.73
-0.85
-1.34
-2.11
-3.00
-3.86
-4.60
-5.29
-6.00
-6.82
-7.74
-8.65
-9.40
-9.80
-9.76
-9.17
-8.01
-6.26
-3.95
-1.23
1.64
4.33
6.49
7.92
8.60
8.68
8.37
7.86
7.26
6.58
5.84
5.07
4.36
3.77
3.32
3.00
2.75
2.53
2.37
2.31
2.39
2.58
2.83
3.03
3.11
2.99
2.69
2.24
1.68
1.03
0.33
-0.37
-1.05
-1.65
-2.16
-2.56
-2.87
-3.12
-3.37
-3.64
-3.91
-4.20
-4.49
-4.75
-4.95
-5.06
-5.06
-4.96
-4.85
-4.78
-4.82
-4.88
-4.78
-4.33
-3.33
-1.75
0.30
2.54
4.64
6.32
7.37
7.71
7.41
6.64
5.64
4.61
3.71
2.94
2.25
1.59
1.01
0.61
0.55
0.91
1.62
2.46
3.14
3.51
3.52
3.24
2.77
2.13
1.29
0.26
-0.86
-1.85
-2.44
-2.56
-2.37
-2.15
-2.27
-2.86
-3.81
-4.81
-5.55
-5.83
-5.70
-5.38
-5.11
-5.06
-5.25
-5.64
-6.13
-6.60
-6.88
-6.77
-6.05
-4.58
-2.38
0.36
3.26
5.90
7.92
9.15
9.58
9.33
8.57
7.48
6.26
5.07
4.00
3.09
2.35
1.73
1.21
0.80
0.55
0.48
0.57
0.73
0.84
0.84
0.72
0.53
0.36
0.24
0.19
0.18
0.21
0.27
0.34
0.33
0.12
-0.38
-1.13
-1.98
-2.70
-3.08
-3.07
-2.80
-2.51
-2.42
-2.63
-3.11
-3.73
-4.33
-4.78
-5.05
-5.16
-5.21
-5.30
-5.55
-5.98
-6.52
-6.99
-7.15
-6.82
-5.86
-4.26
-2.10
0.41
2.99
5.34
7.18
8.29
8.61
8.22
7.32
6.19
5.03
4.01
3.24
2.77
2.64
2.84
3.28
3.79
4.14
4.11
3.64
2.80
1.81
0.94
0.37
0.07
-0.10
-0.34
-0.80
-1.44
-2.12
-2.64
-2.87
-2.84
-2.67
-2.55
-2.56
-2.67
-2.74
-2.70
-2.53
-2.31
-2.20
-2.28
-2.52
-2.78
-2.93
-2.92
-2.83
-2.84
-3.14
-3.76
-4.55
-5.21
-5.43
-4.96
-3.77
-2.00
0.07
2.09
3.77
4.97
5.71
6.10
6.26
6.23
5.99
5.53
4.90
4.22
3.68
3.37
3.27
3.29
3.25
3.11
2.85
2.58
2.36
2.21
2.09
1.93
1.63
1.12
0.38
-0.52
-1.47
-2.29
-2.88
-3.19
-3.29
-3.27
-3.29
-3.38
-3.51
-3.63
-3.70
-3.72
-3.76
-3.85
-4.02
-4.27
-4.56
-4.82
-4.95
-4.82
-4.30
-3.35
-2.05
-0.53
1.03
2.46
3.71
4.74
5.57
6.14
6.35
6.12
5.46
4.49
3.44
2.55
1.98
1.77
1.80
1.90
1.90
1.75
1.48
1.17
0.89
0.67
0.52
0.43
0.42
0.48
0.58
0.58
0.40
-0.04
-0.71
-1.53
-2.36
-3.09
-3.71
-4.21
-4.62
-4.93
-5.16
-5.36
-5.61
-6.02
-6.59
-7.22
-7.77
-8.11
-8.18
-8.01
-7.61
-6.99
-6.07
-4.77
-3.04
-0.95
1.32
3.55
5.53
7.10
8.19
8.77
8.87
8.49
7.71
6.61
5.33
4.08
3.03
2.32
1.98
1.94
2.07
2.24
2.36
2.39
2.34
2.22
2.05
1.87
1.72
1.58
1.40
1.11
0.66
0.08
-0.53
-1.04
-1.38
-1.60
-1.82
-2.16
-2.68
-3.30
-3.92
-4.44
-4.85
-5.21
-5.55
-5.89
-6.17
-6.36
-6.45
-6.50
-6.55
-6.61
-6.57
-6.30
-5.68
-4.65
-3.28
-1.67
0.13
2.04
3.97
5.77
7.20
8.02
8.11
7.52
6.49
5.38
4.43
3.78
3.39
3.09
2.78
2.42
2.08
1.82
1.69
1.67
1.71
1.77
1.82
1.85
1.84
1.73
1.47
1.05
0.49
-0.10
-0.67
-1.14
-1.52
-1.85
-2.17
-2.51
-2.89
-3.30
-3.72
-4.14
-4.52
-4.83
-4.99
-4.98
-4.81
-4.56
-4.36
-4.37
-4.69
-5.28
-5.98
-6.52
-6.60
-6.05
-4.84
-3.11
-1.04
1.15
3.28
5.22
6.84
8.02
8.70
8.88
8.66
8.14
7.41
6.56
5.66
4.77
3.99
3.37
2.92
2.62
2.42
2.32
2.32
2.38
2.44
2.38
2.11
1.61
0.94
0.23
-0.38
-0.80
-1.01
-1.10
-1.21
-1.48
-1.98
-2.71
-3.57
-4.40
-5.07
-5.53
-5.83
-6.06
-6.32
-6.63
-6.96
-7.24
-7.39
-7.30
-6.87
-5.97
-4.54
-2.64
-0.42
1.84
3.88
5.48
6.57
7.19
7.45
7.48
7.40
7.24
7.04
6.75
6.33
5.83
5.29
4.80
4.48
4.37
4.39
4.45
4.38
4.13
3.73
3.27
2.84
2.45
2.08
1.63
1.07
0.43
-0.13
-0.45
-0.43
-0.08
0.44
0.91
1.09
0.87
0.25
-0.63
-1.62
-2.54
-3.32
-3.92
-4.36
-4.66
-4.85
-4.93
-4.96
-5.02
-5.24
-5.71
-6.42
-7.23
-7.89
-8.20
-8.08
-7.70
-7.35
-7.37
-7.85
-8.61
-9.20
-9.17
-8.21
-6.27
-3.59
-0.52
2.54
5.30
7.54
9.13
10.03
10.28
10.04
9.51
8.89
8.30
7.83
7.45
7.11
6.75
6.34
5.88
5.36
4.82
4.29
3.84
3.49
3.26
3.15
3.11
3.08
2.96
2.71
2.31
1.78
1.22
0.74
0.43
0.33
0.40
0.52
0.56
0.39
-0.00
-0.59
-1.27
-1.93
-2.47
-2.88
-3.17
-3.39
-3.56
-3.74
-3.97
-4.32
-4.79
-5.36
-5.92
-6.41
-6.82
-7.13
-7.41
-7.64
-7.81
-7.86
-7.80
-7.69
-7.58
-7.41
-7.00
-6.07
-4.37
-1.84
1.28
4.54
7.46
9.65
10.95
11.41
11.22
10.64
9.86
8.99
8.08
7.14
6.23
5.39
4.71
4.20
3.79
3.40
2.97
2.55
2.23
2.20
2.47
2.92
3.36
3.52
3.29
2.69
1.88
1.04
0.31
-0.21
-0.51
-0.62
-0.63
-0.65
-0.83
-1.26
-1.96
-2.88
-3.90
-4.86
-5.61
-6.02
-6.09
-5.89
-5.61
-5.45
-5.58
-6.03
-6.66
-7.19
-7.28
-6.64
-5.19
-3.01
-0.34
2.51
5.19
7.42
9.00
9.84
9.95
9.44
8.47
7.24
5.91
4.59
3.38
2.33
1.53
1.07
1.04
1.50
2.42
3.69
5.10
6.38
7.28
7.59
7.22
6.23
4.82
3.28
1.82
0.60
-0.34
-1.00
-1.41
-1.58
-1.54
-1.40
-1.33
-1.49
-1.91
-2.53
-3.16
-3.66
-3.98
-4.24
-4.60
-5.16
-5.87
-6.51
-6.90
-6.91
-6.64
-6.32
-6.20
-6.44
-6.99
-7.67
-8.21
-8.35
-7.95
-6.89
-5.19
-2.88
-0.11
2.92
5.91
8.54
10.50
11.58
11.71
10.96
9.56
7.78
5.91
4.19
2.80
1.85
1.36
1.29
1.54
1.95
2.32
2.50
2.36
1.96
1.43
0.99
0.80
0.88
1.13
1.31
1.22
0.79
0.10
-0.64
-1.22
-1.55
-1.68
-1.76
-1.94
-2.29
-2.72
-3.13
-3.41
-3.57
-3.71
-3.93
-4.27
-4.72
-5.16
-5.52
-5.74
-5.85
-5.88
-5.86
-5.83
-5.82
-5.85
-5.95
-6.04
-5.98
-5.52
-4.46
-2.69
-0.30
2.46
5.22
7.63
9.45
10.57
11.03
10.94
10.43
9.63
8.66
7.63
6.64
5.75
5.01
4.43
4.00
3.74
3.64
3.66
3.75
3.81
3.75
3.52
3.10
2.54
1.87
1.10
0.26
-0.64
-1.54
-2.36
-2.99
-3.41
-3.64
-3.79
-4.00
-4.39
-5.00
-5.79
-6.58
-7.23
-7.60
-7.69
-7.58
-7.44
-7.40
-7.48
-7.59
-7.54
-7.16
-6.37
-5.14
-3.50
-1.53
0.67
2.91
4.94
6.50
7.37
7.53
7.12
6.39
5.61
4.95
4.45
4.04
3.64
3.16
2.65
2.16
1.75
1.48
1.34
1.27
1.18
1.04
0.82
0.57
0.29
0.02
-0.29
-0.66
-1.08
-1.51
-1.90
-2.20
-2.42
-2.66
-2.99
-3.46
-4.00
-4.47
-4.74
-4.77
-4.65
-4.54
-4.57
-4.80
-5.18
-5.60
-5.97
-6.28
-6.60
-6.98
-7.37
-7.60
-7.37
-6.38
-4.55
-1.99
0.94
3.79
6.15
7.78
8.63
8.84
8.59
8.03
7.31
6.53
5.76
5.04
4.38
3.78
3.22
2.71
2.26
1.91
1.65
1.46
1.27
1.06
0.81
0.55
0.31
0.10
-0.09
-0.27
-0.46
-0.59
-0.63
-0.58
-0.51
-0.56
-0.79
-1.19
-1.62
-1.92
-1.95
-1.76
-1.54
-1.52
-1.85
-2.49
-3.25
-3.93
-4.41
-4.75
-5.14
-5.77
-6.69
-7.76
-8.73
-9.33
-9.40
-8.88
-7.83
-6.35
-4.53
-2.48
-0.29
1.94
4.07
5.98
7.52
8.58
9.11
9.10
8.61
7.73
6.61
5.41
4.24
3.22
2.43
1.92
1.68
1.69
1.87
2.16
2.43
2.56
2.47
2.11
1.54
0.90
0.34
-0.03
-0.22
-0.33
-0.49
-0.81
-1.31
-1.91
-2.51
-3.03
-3.46
-3.81
-4.08
-4.24
-4.26
-4.16
-4.02
-3.96
-4.08
-4.42
-4.94
-5.48
-5.84
-5.82
-5.31
-4.26
-2.80
-1.06
0.72
2.40
3.85
5.05
6.02
6.75
7.18
7.21
6.75
5.84
4.68
3.55
2.74
2.39
2.47
2.74
2.95
2.91
2.57
2.04
1.52
1.13
0.91
0.76
0.58
0.23
-0.27
-0.86
-1.47
-2.01
-2.43
-2.72
-2.93
-3.06
-3.19
-3.31
-3.45
-3.59
-3.75
-3.94
-4.20
-4.60
-5.21
-6.00
-6.87
-7.60
-7.96
-7.73
-6.86
-5.39
-3.48
-1.39
0.66
2.56
4.23
5.65
6.85
7.80
8.43
8.70
8.58
8.12
7.40
6.56
5.67
4.84
4.13
3.55
3.10
2.74
2.43
2.19
2.04
2.02
2.15
2.33
2.44
2.34
1.99
1.45
0.82
0.22
-0.34
-0.88
-1.39
-1.83
-2.09
-2.10
-1.89
-1.65
-1.58
-1.85
-2.45
-3.27
-4.13
-4.90
-5.51
-5.97
-6.28
-6.40
-6.34
-6.13
-5.90
-5.80
-5.96
-6.38
-6.91
-7.29
-7.27
-6.67
-5.47
-3.79
-1.81
0.27
2.28
4.11
5.64
6.79
7.50
7.79
7.74
7.47
7.13
6.80
6.48
6.14
5.74
5.29
4.84
4.40
4.00
3.60
3.19
2.81
2.52
2.40
2.47
2.66
2.83
2.83
2.52
1.87
0.97
-0.04
-0.99
-1.75
-2.27
-2.54
-2.61
-2.54
-2.41
-2.29
-2.28
-2.47
-2.90
-3.55
-4.35
-5.16
-5.91
-6.52
-7.05
-7.53
-8.01
-8.49
-8.94
-9.23
-9.16
-8.50
-7.09
-4.90
-2.13
0.85
3.62
5.86
7.46
8.48
9.08
9.36
9.33
8.95
8.18
7.10
5.88
4.70
3.72
2.97
2.44
2.11
1.99
2.13
2.54
3.12
3.71
4.11
4.16
3.82
3.15
2.27
1.32
0.45
-0.30
-0.91
-1.37
-1.72
-2.03
-2.38
-2.83
-3.39
-4.05
-4.72
-5.31
-5.76
-6.06
-6.22
-6.37
-6.57
-6.88
-7.30
-7.68
-7.83
-7.49
-6.52
-4.86
-2.67
-0.25
2.10
4.12
5.69
6.82
7.57
7.96
8.00
7.68
7.04
6.23
5.48
4.93
4.64
4.53
4.45
4.23
3.87
3.48
3.20
3.15
3.36
3.67
3.89
3.86
3.52
2.92
2.18
1.47
0.85
0.36
-0.07
-0.47
-0.85
-1.21
-1.53
-1.78
-1.96
-2.16
-2.43
-2.85
-3.42
-4.12
-4.88
-5.57
-6.16
-6.60
-6.95
-7.31
-7.74
-8.25
-8.73
-9.06
-9.15
-8.95
-8.49
-7.77
-6.73
-5.22
-3.11
-0.42
2.64
5.66
8.15
9.79
10.48
10.43
9.94
9.28
8.56
7.72
6.66
5.35
3.93
2.70
1.90
1.67
1.92
2.44
2.98
3.41
3.69
3.85
3.95
3.96
3.80
3.40
2.73
1.85
0.86
-0.17
-1.20
-2.26
-3.34
-4.42
-5.42
-6.24
-6.85
-7.23
-7.51
-7.80
-8.24
-8.87
-9.64
-10.43
-11.14
-11.68
-12.04
-12.29
-12.50
-12.72
-12.99
-13.29
-13.58
-13.77
-13.76
-13.39
-12.45
-10.81
-8.37
-5.27
-1.75
1.85
5.13
7.79
9.70
10.85
11.42
11.60
11.60
11.56
11.54
11.54
11.54
11.49
11.32
10.97
10.41
9.66
8.84
8.10
7.58
7.31
7.21
7.13
6.90
6.43
5.74
4.96
4.20
3.55
2.98
2.40
1.76
1.01
0.21
-0.64
-1.48
-2.36
-3.33
-4.38
-5.48
-6.47
-7.25
-7.75
-8.04
-8.25
-8.48
-8.73
-8.84
-8.56
-7.57
-5.68
-2.91
0.49
4.11
7.52
10.40
12.62
14.18
15.18
15.70
15.74
15.28
14.33
12.95
11.34
9.70
8.19
6.88
5.73
4.70
3.75
2.96
2.45
2.30
2.48
2.87
3.21
3.31
3.08
2.53
1.78
0.95
0.11
-0.72
-1.57
-2.44
-3.33
-4.21
-5.04
-5.82
-6.56
-7.27
-7.93
-8.50
-8.93
-9.22
-9.40
-9.56
-9.83
-10.25
-10.80
-11.29
-11.47
-11.07
-9.90
-7.96
-5.41
-2.55
0.31
2.88
5.02
6.73
8.02
8.91
9.37
9.33
8.77
7.74
6.42
5.10
4.03
3.38
3.12
3.14
3.28
3.40
3.44
3.37
3.23
3.05
2.83
2.51
2.06
1.40
0.50
-0.59
-1.76
-2.82
-3.65
-4.19
-4.52
-4.80
-5.22
-5.90
-6.79
-7.75
-8.57
-9.12
-9.39
-9.53
-9.78
-10.32
-11.20
-12.30
-13.40
-14.27
-14.76
-14.84
-14.55
-13.93
-12.98
-11.66
-10.00
-8.15
-6.36
-4.91
-4.01
-3.76
-4.10
-4.83
-5.80
-6.81
-7.71
-8.37
-8.64
-8.43
-7.73
-6.59
-5.14
-3.48
-1.71
0.12
1.92
3.57
4.86
5.62
5.67
4.95
3.47
1.36
-1.14
-3.61
-5.27
-5.07
-1.76
5.68
17.73
34.04
53.46
74.25
94.49
112.46
126.77
136.45
140.89
139.88
133.65
122.83
108.40
91.48
73.14
54.16
35.14
16.49
-1.29
-17.51
-31.23
-41.46
-47.33
-48.53
-45.39
-38.92
-30.56
-21.84
-14.01
-7.78
-3.40
-0.73
0.39
0.02
-1.82
-5.11
-9.79
-15.62
-22.35
-29.74
-37.58
-45.63
-53.42
-60.28
-65.44
-68.25
-68.35
-65.76
-60.77
-53.86
-45.51
-36.17
-26.20
-16.00
-5.93
3.57
12.04
19.05
24.15
27.03
27.60
25.96
22.41
17.39
11.30
4.57
-2.38
-9.04
-14.93
-19.62
-22.96
-25.06
-26.16
-26.50
-26.23
-25.38
-23.98
-22.15
-20.13
-18.18
-16.46
-15.01
-13.87
-13.15
-13.19
-14.45
-17.37
-22.13
-28.51
-35.98
-43.76
-51.13
-57.54
-62.67
-66.44
-68.85
-69.92
-69.72
-68.39
-66.22
-63.69
-61.37
-59.83
-59.52
-60.67
-63.27
-67.20
-72.24
-78.10
-84.49
-91.13
-97.78
-104.38
-111.03
-117.99
-125.60
-134.18
-143.80
-154.19
-164.72
-174.42
-182.16
-186.93
-187.92
-184.72
-177.10
-164.92
-148.12
-126.74
-101.10
-72.05
-40.88
-9.24
21.11
48.50
71.57
89.34
101.35
107.76
109.35
107.43
103.58
99.25
95.47
92.61
90.45
88.41
85.85
82.38
78.01
73.08
68.03
63.17
58.53
53.90
49.04
43.88
38.46
32.91
27.13
20.78
13.43
4.82
-4.90
-15.19
-25.42
-35.19
-44.40
-53.17
-61.67
-69.83
-77.34
-83.63
-87.91
-89.10
-85.79
-76.34
-59.19
-33.45
0.68
41.52
86.14
131.02
172.74
208.79
237.89
259.96
275.77
286.34
292.49
294.53
292.44
286.06
275.55
261.61
245.46
228.67
212.77
198.80
187.22
177.90
170.37
164.13
158.76
153.83
148.59
141.88
132.26
118.43
99.90
77.14
51.55
24.99
-0.94
-25.29
-47.81
-68.64
-88.00
-106.05
-122.98
-139.06
-154.53
-169.53
-183.95
-197.53
-209.93
-220.76
-229.55
-235.37
-236.84
-232.31
-220.50
-201.15
-175.50
-146.13
-116.24
-88.73
-65.45
-46.94
-32.60
-21.28
-11.58
-2.27
7.63
18.82
31.78
46.66
63.20
80.72
97.97
113.50
125.93
134.27
138.14
137.72
133.59
126.48
117.29
106.98
96.70
87.49
80.06
74.55
70.56
67.28
63.77
59.36
53.70
46.71
38.31
28.29
16.34
2.27
-13.83
-31.62
-50.53
-69.98
-89.45
-108.40
-126.03
-141.07
-151.74
-155.99
-152.09
-139.17
-117.62
-89.08
-56.12
-21.60
11.75
41.71
66.82
86.20
99.44
106.45
107.56
103.55
95.55
84.78
72.37
59.36
46.53
34.44
23.54
14.22
7.03
2.43
0.75
1.97
6.04
12.46
20.33
28.54
36.11
42.42
47.27
50.75
53.19
55.78
59.34
64.04
69.57
75.67
82.38
89.93
98.37
107.40
117.89
129.68
141.30
150.47
155.48
155.84
152.16
145.63
137.56
131.68
130.27
133.04
137.66
141.61
143.36
142.28
138.16
130.78
123.36
117.65
112.76
105.88
95.03
80.31
63.54
47.02
11.90
-47.42
-121.40
-191.06
-241.91
-270.08
-279.17
-275.20
-263.48
-245.53
-219.67
-185.20
-144.61
-103.42
-67.39
-40.26
-22.69
-12.59
-12.35
-18.10
-25.74
-33.75
-43.25
-56.18
-73.85
-95.77
-120.71
-147.56
-173.39
-195.63
-213.73
-228.85
-242.17
-254.22
-263.12
-266.48
-262.72
-250.09
-227.21
-194.47
-153.96
-108.30
-60.75
-12.13
36.74
84.49
129.77
172.12
210.99
245.50
274.82
297.30
314.39
327.91
339.51
335.16
305.51
252.14
185.67
125.61
70.65
17.79
-35.06
-88.72
-141.09
-189.96
-233.45
-270.53
-300.88
-326.03
-345.49
-359.17
-367.21
-357.01
-322.90
-268.91
-206.36
-145.68
-93.01
-48.35
-10.35
22.46
52.69
79.93
103.59
123.67
141.12
156.44
171.53
183.31
191.17
195.40
195.16
190.13
180.51
166.87
149.46
129.01
106.32
83.04
60.65
39.12
18.68
0.15
-15.20
-26.33
-32.52
-33.68
-29.59
-20.54
-7.61
8.35
26.90
47.59
69.32
90.03
106.72
116.43
116.52
105.52
84.03
54.86
22.21
-9.56
-37.08
-58.61
-73.82
-83.66
-89.79
-94.06
-98.11
-103.09
-109.36
-116.40
-123.03
-127.88
-130.05
-129.67
-127.73
-125.64
-124.49
-124.43
-124.61
-123.42
-119.10
-110.31
-96.63
-78.74
-58.31
-37.69
-19.41
-5.56
2.55
4.60
1.19
-6.33
-16.15
-26.33
-35.12
-41.42
-44.96
-46.22
-45.98
-44.83
-42.83
-39.67
-35.08
-29.23
-22.69
-16.14
-9.82
-3.34
4.10
13.03
23.15
33.30
42.13
49.08
55.15
62.79
74.85
92.99
116.60
142.68
167.08
186.42
199.62
208.11
214.64
221.27
227.96
232.50
231.59
222.33
203.19
173.99
135.35
88.31
34.62
-22.53
-78.51
-127.98
-166.46
-191.53
-203.32
-203.69
-195.03
-179.37
-158.12
-132.65
-104.70
-76.36
-49.53
-25.51
-4.76
12.79
27.36
38.91
47.22
52.06
53.44
51.71
47.11
39.63
28.94
14.68
-3.05
-23.16
-43.74
-62.54
-77.68
-88.46
-95.31
-99.52
-102.49
-105.17
-107.76
-110.05
-111.69
-112.50
-112.46
-111.59
-109.77
-106.77
-102.28
-96.05
-87.94
-77.96
-66.22
-53.03
-38.94
-24.92
-12.21
-2.24
3.89
5.70
3.70
-0.70
-5.70
-9.70
-11.84
-12.15
-11.22
-9.70
-8.11
-7.01
-7.15
-9.64
-15.39
-24.51
-35.69
-46.35
-53.45
-54.64
-49.21
-38.14
-23.50
-7.41
8.61
23.82
38.06
51.38
63.77
75.10
85.14
93.43
99.29
101.90
100.61
95.45
87.32
77.74
68.30
59.96
52.76
45.94
38.61
30.32
21.48
13.21
6.45
1.52
-1.90
-4.50
-6.68
-8.20
-8.21
-5.55
0.77
10.39
21.94
34.02
45.79
57.28
69.56
83.90
101.53
123.23
147.59
171.69
192.70
208.77
219.09
224.25
225.04
223.15
221.18
220.41
221.66
226.41
236.34
251.60
270.44
287.79
297.75
295.06
273.21
226.70
153.63
56.76
-57.57
-179.75
-300.67
-411.70
-491.91
-524.46
-510.79
-468.22
-416.80
-375.76
-345.07
-320.91
-298.03
-271.55
-241.08
-208.83
-178.63
-153.86
-136.82
-126.88
-121.84
-116.52
-104.36
-82.27
-51.34
-15.52
20.21
50.82
73.30
85.86
89.81
88.98
86.84
85.56
85.85
87.32
88.58
88.49
86.20
82.59
79.98
79.82
82.25
86.64
92.59
99.96
109.08
120.12
133.37
148.80
164.50
177.44
185.49
188.96
190.11
191.77
196.20
204.71
217.33
231.51
243.61
251.62
256.50
260.61
265.12
268.76
267.78
256.98
229.00
177.14
99.34
-0.06
-112.49
-228.78
-341.28
-444.68
-521.66
-552.87
-532.42
-474.05
-399.39
-324.68
-257.87
-201.37
-154.80
-116.47
-86.44
-65.83
-54.42
-49.28
-46.38
-42.82
-37.41
-29.93
-20.54
-11.16
-4.45
-1.71
-1.95
-2.87
-2.70
-0.77
3.00
8.57
14.85
20.46
24.99
29.42
35.47
44.28
55.95
69.75
84.56
98.41
109.00
114.63
114.66
109.33
99.22
85.07
67.64
48.61
29.21
10.44
-6.72
-21.34
-32.72
-40.58
-45.15
-46.88
-46.52
-44.96
-42.96
-40.98
-39.19
-37.52
-35.81
-33.94
-31.79
-29.51
-27.52
-26.13
-25.48
-25.39
-25.40
-25.00
-23.82
-21.87
-19.63
-17.90
-17.39
-18.38
-20.51
-22.83
-24.26
-24.02
-22.37
-19.96
-18.19
-18.39
-21.15
-25.94
-31.23
-35.28
-36.62
-34.93
-31.04
-26.71
-24.04
-24.88
-30.25
-39.67
-50.54
-58.23
-57.24
-43.47
-16.52
19.25
56.13
85.79
103.01
107.60
103.90
98.15
95.38
97.45
102.69
107.06
105.99
95.92
75.57
46.48
12.74
-20.55
-48.64
-69.30
-82.87
-91.72
-98.66
-105.59
-113.25
-121.39
-129.32
-135.46
-137.56
-134.05
-123.98
-109.51
-95.35
-86.39
-84.55
-87.59
-89.40
-83.81
-68.39
-45.88
-22.73
-4.60
7.06
15.48
25.57
39.94
56.25
68.05
68.67
54.74
29.05
-0.72
-25.10
-37.17
-34.92
-21.20
-1.70
18.50
36.38
51.80
65.86
79.25
91.41
100.77
105.35
104.24
98.35
89.63
80.97
74.77
72.10
72.65
75.13
77.60
78.74
78.93
77.65
75.34
72.36
68.59
63.40
56.14
46.00
33.01
17.63
0.78
-16.21
-32.14
-46.06
-57.32
-65.64
-70.97
-73.33
-72.84
-70.15
-65.86
-60.70
-55.55
-51.23
-48.42
-47.55
-48.53
-51.09
-55.03
-59.77
-64.64
-69.15
-73.20
-76.86
-80.18
-83.09
-85.61
-87.95
-89.96
-91.34
-91.93
-91.99
-91.92
-92.42
-94.04
-97.36
-102.78
-110.34
-119.22
-128.79
-138.40
-147.42
-155.46
-162.01
-166.36
-167.29
-167.54
-167.75
-168.17
-168.71
-169.11
-168.65
-166.06
-159.59
-147.27
-127.39
-98.50
-60.49
-14.64
36.59
90.12
142.96
192.73
237.94
278.10
313.82
346.02
375.84
404.13
430.92
455.04
474.01
484.53
483.78
470.67
446.17
413.13
375.34
336.46
299.33
265.73
236.59
212.02
191.45
173.55
156.60
138.83
118.95
96.41
71.22
43.70
14.55
-14.99
-43.18
-68.09
-88.53
-104.60
-117.80
-130.23
-143.34
-156.78
-168.39
-175.35
-175.92
-170.70
-162.43
-154.59
-149.56
-147.58
-146.95
-145.32
-141.28
-135.17
-128.82
-124.39
-122.82
-123.20
-123.20
-120.18
-112.63
-100.56
-85.42
-68.88
-51.97
-34.49
-15.25
6.76
31.58
57.25
80.77
98.70
108.87
111.06
106.92
99.24
90.39
82.16
74.90
68.17
60.83
51.45
38.50
20.75
-2.23
-29.84
-60.57
-92.84
-125.44
-157.13
-185.80
-207.63
-217.66
-211.42
-188.07
-151.84
-111.59
-77.72
-57.75
-53.88
-62.66
-77.87
-92.92
-103.46
-106.93
-101.61
-85.59
-56.51
-13.49
41.84
104.47
167.40
223.63
268.08
298.02
312.53
311.66
295.57
264.97
221.78
169.82
114.20
60.14
11.25
-30.84
-65.52
-92.33
-110.19
-117.85
-114.48
-101.03
-80.07
-55.48
-30.46
-5.78
19.90
48.72
81.89
119.59
160.44
202.45
242.82
279.07
310.08
335.70
355.88
369.68
375.30
368.79
345.28
299.06
226.52
128.86
12.28
-113.78
-239.74
-357.74
-459.76
-529.13
-552.29
-529.30
-472.58
-398.25
-319.70
-250.14
-190.61
-140.62
-97.00
-55.64
-12.64
34.41
81.95
124.66
156.87
173.75
169.80
141.03
85.21
3.67
-95.99
-199.10
-285.76
-330.97
-315.38
-242.44
-138.20
-35.15
44.49
93.89
116.53
120.03
111.11
94.04
71.32
46.92
26.39
14.13
12.72
19.80
31.97
45.47
56.58
61.85
60.14
53.49
45.44
39.31
36.88
38.48
43.08
48.47
52.26
51.74
47.64
42.23
37.73
35.16
34.54
34.98
34.90
32.61
27.30
19.57
10.43
0.96
-8.19
-16.67
-24.23
-30.92
-36.98
-42.57
-47.57
-51.91
-55.48
-58.20
-59.89
-60.39
-59.69
-58.05
-55.80
-53.21
-50.55
-47.91
-45.36
-42.88
-40.53
-38.33
-36.22
-33.94
-31.03
