1630944375.00
64.000000
-0.00
-0.00
-0.00
-0.00
-0.00
-0.00
-0.00
-0.00
-0.00
-0.00
0.00
0.01
0.01
-0.00
-0.03
-0.05
-0.05
0.00
0.13
0.36
0.66
1.01
1.37
1.72
2.06
2.40
2.79
3.24
3.80
4.42
5.06
5.66
6.20
6.68
7.15
7.68
8.31
9.14
10.09
11.04
11.89
12.58
13.17
13.83
14.78
16.17
18.23
20.77
23.52
26.18
28.58
30.80
33.13
36.00
39.74
44.70
50.55
56.74
62.69
68.05
72.88
77.65
83.08
89.67
97.98
107.49
117.41
126.86
135.27
142.69
149.75
157.80
165.55
175.31
187.67
202.74
219.30
234.41
243.69
242.41
227.17
197.11
154.71
103.90
49.11
-6.39
-61.09
-114.83
-167.88
-220.10
-270.59
-317.80
-360.68
-398.37
-430.23
-455.47
-472.88
-480.95
-478.09
-463.19
-435.88
-397.23
-349.40
-295.44
-238.86
-183.19
-131.49
-86.79
-50.66
-23.31
-4.16
7.86
13.86
14.61
10.57
2.16
-9.81
-23.67
-36.90
-46.61
-50.27
-46.62
-36.24
-21.39
-5.15
10.54
25.08
39.55
56.03
76.44
101.13
128.04
153.06
171.19
177.35
168.15
142.59
102.66
53.86
5.08
-32.80
-49.89
-41.05
-8.95
35.81
78.07
103.89
106.01
86.23
53.53
19.04
-9.01
-27.99
-39.84
-47.72
-52.37
-51.64
-42.10
-21.97
6.89
38.97
67.44
87.37
97.69
101.13
102.44
105.43
111.03
116.87
118.77
112.33
95.54
70.07
41.09
15.13
-2.40
-9.45
-8.05
-3.27
-1.51
-8.17
-26.32
-55.90
-93.34
-131.93
-162.32
-174.30
-160.09
-118.15
-55.04
15.78
78.87
122.65
143.35
144.27
133.23
117.87
101.84
85.02
63.97
36.06
1.66
-36.12
-72.25
-101.03
-117.27
-117.90
-103.07
-76.98
-46.74
-19.88
-1.50
7.63
10.40
11.27
13.69
18.41
23.75
27.78
30.37
33.67
40.51
52.04
66.46
79.59
87.03
86.23
77.75
64.76
51.67
42.02
37.15
35.87
34.87
29.66
15.94
-8.44
-43.22
-83.97
-122.62
-149.82
-158.06
-144.40
-111.32
-65.46
-15.72
29.17
62.48
80.19
81.08
66.89
42.09
11.94
-15.71
-34.34
-41.33
-38.43
-29.93
-20.14
-11.54
-4.55
1.40
6.66
10.41
10.94
6.54
-3.89
-20.43
-40.96
-61.03
-74.10
-73.99
-57.17
-24.38
19.25
65.74
106.78
135.75
149.23
147.49
133.92
113.92
93.36
77.08
67.66
64.30
63.46
60.59
52.12
36.81
16.09
-7.20
-30.86
-50.87
-64.11
-69.09
-66.00
-56.45
-43.18
-29.25
-17.12
-8.26
-2.76
-0.08
0.66
0.47
0.26
0.14
0.30
0.75
1.54
3.08
5.50
8.56
11.68
14.00
14.58
13.23
10.58
7.96
6.68
7.33
9.30
10.94
10.08
4.56
-6.88
-24.53
-47.34
-72.57
-95.93
-112.29
-117.25
-107.86
-86.94
-60.75
-36.61
-19.86
-11.93
-10.09
-9.30
-4.75
5.75
20.52
35.19
44.71
45.20
35.64
18.49
-1.14
-17.52
-26.35
-26.79
-21.27
-13.60
-6.62
-0.81
5.25
13.01
22.26
30.70
35.12
33.55
26.56
17.12
9.13
5.76
7.94
14.09
21.03
25.40
25.07
19.51
9.48
-3.57
-17.53
-29.70
-37.01
-36.78
-27.94
-12.07
6.61
22.65
31.54
31.31
23.60
12.06
0.32
-9.68
-17.83
-25.00
-31.63
-37.13
-40.12
-39.49
-35.26
-28.44
-20.64
-13.43
-7.51
-2.75
1.52
6.04
11.02
16.00
19.99
21.88
20.77
16.43
9.36
0.41
-8.76
-16.71
-22.40
-25.39
-25.89
-24.74
-23.09
-22.01
-22.09
-23.16
-24.37
-24.49
-22.36
-17.42
-10.09
-1.41
7.26
15.04
22.16
29.48
38.13
48.94
61.82
75.37
88.33
99.72
108.92
114.91
115.81
109.57
95.56
76.01
55.65
39.93
31.81
30.02
29.47
24.03
10.48
-10.08
-31.46
-47.52
-55.00
-55.32
-52.90
-51.98
-54.65
-60.45
-67.46
-74.08
-80.10
-85.98
-91.64
-95.70
-95.30
-87.88
-71.71
-47.11
-15.70
19.50
55.45
89.21
117.47
136.15
140.98
129.35
100.68
61.83
22.50
-7.89
-23.52
-24.34
-15.33
-4.37
1.94
0.22
-9.35
-24.53
-42.75
-61.41
-77.99
-89.74
-94.10
-89.55
-77.17
-61.54
-50.06
-49.44
-61.45
-81.31
-99.04
-103.63
-88.53
-55.43
-14.77
18.31
31.12
20.18
-8.63
-42.95
-69.35
-78.66
-67.86
-40.30
-2.03
41.83
89.79
140.73
191.63
237.32
266.61
271.85
251.20
209.99
152.84
92.93
44.01
13.16
-2.11
-10.10
-17.96
-28.09
-38.29
-44.23
-42.17
-32.66
-20.45
-11.54
-10.04
-16.37
-28.28
-42.63
-55.61
-64.07
-67.76
-69.19
-71.89
-78.53
-89.20
-101.28
-110.06
-108.80
-91.10
-55.01
-4.73
50.27
98.11
128.29
131.94
105.44
54.29
-8.25
-66.23
-106.54
-122.39
-114.41
-89.43
-53.03
-15.93
12.24
28.35
35.05
36.12
33.30
26.71
16.70
5.06
-5.58
-11.95
-12.16
-7.23
-0.49
4.14
4.30
-0.08
-7.16
-14.53
-19.60
-20.78
-18.48
-14.79
-12.24
-12.43
-15.50
-20.42
-25.80
-30.02
-31.96
-31.49
-29.51
-27.21
-25.28
-23.75
-22.04
-19.51
-15.43
-9.33
-1.26
8.06
17.68
26.81
34.92
41.75
47.15
51.10
53.60
54.76
54.40
52.31
48.38
42.62
35.13
26.11
15.82
3.56
-9.68
-23.11
-36.08
-48.13
-58.96
-68.42
-76.41
-82.86
-87.74
-90.82
-92.12
-91.63
-89.35
-85.26
-79.47
-72.13
-63.47
-53.85
-43.32
-32.27
-20.97
-9.91
0.33
9.19
16.25
21.26
23.97
24.93
24.50
23.31
21.61
19.40
16.61
13.17
9.19
4.52
0.10
-3.49
-5.49
-5.80
-4.68
-2.48
0.63
4.98
10.79
20.17
31.36
43.75
56.40
68.18
77.93
84.80
88.62
82.60
63.75
31.98
-9.37
-55.48
-101.69
-144.71
-182.92
-212.15
-233.67
-248.16
-256.42
-258.95
-256.53
-249.88
-239.23
-226.84
-213.56
-200.39
-186.77
-172.37
-157.06
-141.24
-125.55
-110.49
-96.26
-82.39
-68.85
-54.94
-40.35
-25.20
-10.01
4.71
18.82
32.56
46.78
61.92
78.49
96.41
115.18
134.03
152.37
170.07
187.42
205.22
224.35
245.90
270.73
298.83
328.73
357.25
379.95
392.43
391.93
378.35
354.38
324.36
292.63
262.14
234.05
208.24
184.21
161.87
141.60
123.76
108.24
94.34
81.07
67.72
54.17
40.91
28.80
18.54
10.33
3.82
-1.67
-6.86
-12.18
-17.63
-22.90
-27.52
-31.15
-33.69
-35.34
-36.48
-37.55
-38.83
-40.38
-41.96
-43.21
-43.79
-43.55
-42.62
-41.32
-40.03
-38.98
-38.19
-37.50
-36.71
-35.74
-34.65
-33.57
-32.61
-31.78
-31.00
-30.18
-29.29
-28.36
-27.47
-26.64
-25.81
-24.91
-23.91
-22.87
-21.92
-21.17
-20.67
-20.31
-19.93
-19.37
-18.56
-17.59
-16.62
-15.85
-15.39
-15.23
-15.23
-15.19
-14.99
-14.57
-14.02
-13.46
-12.98
-12.64
-12.40
-12.21
-12.02
-11.84
-11.71
-11.64
-11.62
-11.60
-11.47
-11.16
-10.64
-10.00
-9.36
-8.86
-8.60
-8.54
-8.58
-8.58
-8.46
-8.22
-7.93
-7.65
-7.41
-7.22
-7.08
-6.97
-6.92
-6.97
-7.10
-7.23
-7.24
-6.99
-6.41
-5.55
-4.51
-3.44
-2.52
-1.86
-1.45
-1.20
-0.95
-0.58
-0.03
0.75
1.72
2.84
4.00
5.14
6.18
7.09
7.90
8.66
9.66
11.14
13.18
15.71
18.48
21.23
23.77
26.05
28.16
30.69
34.06
38.45
43.67
49.25
54.74
59.90
64.78
69.62
75.32
82.34
90.74
100.00
109.35
118.18
126.25
133.69
140.73
148.46
157.37
167.55
178.39
188.85
197.97
205.34
211.10
210.01
199.11
177.29
146.29
109.32
69.46
28.31
-14.17
-58.63
-105.06
-150.96
-192.84
-226.62
-249.79
-262.23
-266.06
-264.52
-260.64
-256.34
-251.57
-247.69
-243.79
-239.18
-233.81
-227.93
-221.70
-214.90
-207.02
-194.60
-176.66
-152.99
-124.78
-94.27
-64.24
-37.36
-15.44
0.88
12.34
20.49
27.85
36.13
45.61
55.00
61.53
63.07
58.40
47.31
30.94
11.80
-7.11
-23.20
-34.89
-42.17
-46.74
-52.03
-62.55
-81.29
-107.55
-136.25
-159.02
-166.92
-154.07
-120.12
-67.80
-7.25
49.99
95.93
128.21
148.89
161.58
168.64
170.53
166.62
156.90
143.83
131.52
124.04
123.62
130.33
142.27
155.76
165.93
167.04
154.16
124.70
79.93
25.04
-31.96
-83.09
-123.17
-152.06
-172.21
-186.36
-196.09
-201.35
-201.61
-196.74
-187.92
-177.29
-166.72
-156.72
-146.16
-133.05
-114.30
-89.58
-60.51
-30.11
-1.70
22.13
40.26
53.10
62.09
68.90
74.53
79.41
83.26
85.52
85.73
83.88
80.43
76.04
71.34
66.34
60.76
54.06
45.59
34.96
22.14
7.75
-7.23
-21.54
-34.05
-43.68
-49.61
-51.40
-48.38
-41.17
-30.82
-18.56
-5.55
7.18
18.95
29.38
38.26
45.41
50.56
53.63
54.77
54.41
53.17
51.88
51.20
51.44
52.44
53.53
53.92
53.09
50.91
47.68
43.83
39.66
35.24
30.36
24.61
17.75
9.54
-0.52
-13.38
-30.03
-50.11
-71.06
-87.15
-92.58
-83.52
-60.20
-27.05
9.11
41.68
66.05
79.71
80.98
68.47
41.33
1.05
-47.07
-94.47
-132.10
-153.94
-159.24
-153.27
-141.58
-128.85
-117.14
-105.47
-91.38
-73.01
-50.03
-23.34
3.90
28.63
47.96
59.53
61.64
53.89
37.64
16.71
-3.04
-15.49
-16.51
-5.99
10.90
26.56
34.56
32.29
21.76
7.90
-4.60
-13.25
-18.58
-22.69
-27.34
-32.19
-35.31
-34.54
-28.66
-17.65
-2.17
16.62
37.23
57.35
73.49
81.53
78.25
63.32
40.10
14.66
-5.82
-16.65
-17.10
-9.80
1.25
12.76
23.07
31.75
38.62
43.15
44.61
42.79
38.59
33.83
30.29
29.00
29.77
31.40
32.51
32.09
30.12
27.39
24.93
23.44
22.81
22.24
20.60
16.77
9.82
-0.56
-13.92
-28.50
-41.39
-49.58
-51.41
-47.63
-41.40
-36.79
-36.64
-40.98
-46.92
-50.15
-47.58
-38.78
-25.92
-12.17
0.06
10.07
18.37
25.60
31.63
35.59
36.61
34.94
31.63
28.59
27.52
29.02
32.39
36.08
38.31
38.07
35.69
32.52
30.10
29.44
30.41
31.89
32.23
29.78
23.15
11.38
-5.67
-26.69
-48.45
-66.18
-74.96
-71.86
-57.21
-36.08
-15.38
-1.20
3.62
0.04
-8.36
-17.52
-24.80
-29.38
-31.79
-32.74
-32.71
-32.02
-31.03
-30.44
-30.89
-32.50
-34.81
-36.72
-36.47
-32.11
-22.34
-7.66
9.19
23.43
29.92
25.63
11.39
-7.81
-24.87
-33.58
-31.54
-20.62
-5.32
9.93
22.60
32.36
39.87
45.40
48.38
48.01
44.37
38.93
33.97
31.62
32.84
36.88
41.77
44.91
44.02
37.69
25.93
10.75
-3.86
-13.09
-12.85
-1.87
17.14
38.12
54.09
59.80
54.34
40.87
24.53
9.75
-1.47
-9.58
-16.15
-22.10
-27.09
-29.91
-29.67
-26.65
-22.25
-18.30
-16.31
-16.66
-18.61
-20.80
-21.82
-21.02
-18.69
-15.79
-13.50
-12.65
-13.35
-15.07
-16.94
-18.15
-18.34
-17.71
-16.83
-16.38
-16.80
-18.17
-20.20
-22.45
-24.51
-26.19
-27.59
-28.96
-30.60
-32.70
-35.32
-38.35
-41.63
-45.01
-48.43
-51.88
-55.40
-59.00
-62.62
-66.08
-69.12
-71.45
-72.68
-72.49
-70.52
-66.52
-60.49
-52.36
-42.32
-30.74
-18.16
-5.24
7.35
18.99
29.13
37.43
43.72
47.99
50.41
51.24
50.81
49.44
47.41
44.95
42.16
39.11
35.82
32.27
28.47
24.46
20.25
15.93
11.57
7.26
3.06
-0.94
-4.70
-8.26
-11.68
-15.13
-18.73
-22.65
-27.06
-32.10
-37.75
-43.95
-50.64
-57.75
-65.19
-72.86
-80.70
-88.65
-96.70
-104.63
-112.28
-119.57
-126.46
-132.94
-139.02
-144.76
-150.22
-155.52
-160.40
-164.68
-168.16
-170.66
-171.91
-171.52
-168.98
-163.49
-156.51
-148.57
-140.04
-131.18
-122.22
-113.32
-104.63
-96.26
-88.31
-80.93
-73.90
-67.12
-60.56
-54.25
-48.22
-42.51
-37.15
-32.17
-27.63
-23.35
-19.30
-15.54
-12.14
-9.20
-6.68
-4.46
-2.35
-0.13
2.49
5.58
9.02
12.57
16.00
19.26
22.51
26.13
30.50
35.97
42.54
49.92
57.63
65.26
72.70
80.27
88.57
98.32
109.95
123.46
138.36
153.91
169.43
184.59
199.48
214.63
230.83
249.05
270.24
294.96
322.70
351.45
377.62
396.82
405.16
400.71
384.18
358.60
328.14
296.57
266.34
238.36
212.58
188.74
166.79
146.87
129.00
112.82
97.62
82.68
67.64
52.68
38.44
25.73
15.16
6.83
0.41
-4.76
-9.31
-13.58
-17.57
-21.07
-23.90
-26.05
-27.73
-29.24
-30.83
-32.57
-34.36
-36.00
-37.23
-37.92
-38.01
-37.60
-36.88
-36.09
-35.41
-34.92
-34.58
-34.20
-33.63
-32.77
-31.62
-30.29
-28.87
-27.46
-26.09
-24.74
-23.34
-21.77
-19.95
-17.78
-15.30
-12.61
-9.90
-7.36
-5.04
-2.88
-0.70
1.72
4.53
7.78
11.45
15.46
19.64
23.78
27.68
31.16
34.22
36.98
39.61
42.02
43.72
43.75
41.03
34.82
25.19
13.12
0.36
-11.03
-19.21
-22.96
-21.88
-16.44
-7.87
2.06
11.32
18.05
20.95
19.58
14.35
6.29
-3.34
-13.38
-22.89
-31.15
-37.61
-41.76
-43.26
-42.07
-38.69
-34.19
-30.09
-27.89
-28.62
-32.45
-38.73
-46.29
-53.96
-60.96
-67.05
-72.36
-77.15
-81.59
-85.80
-89.88
-93.71
-96.86
-98.30
-96.69
-91.06
-81.48
-69.37
-57.18
-47.27
-41.01
-38.24
-37.74
-38.08
-38.54
-39.32
-41.03
-43.89
-47.26
-49.86
-50.45
-48.59
-44.92
-40.75
-37.36
-35.23
-33.81
-31.74
-27.57
-20.51
-10.71
0.69
12.10
22.10
29.84
35.23
38.71
40.81
41.93
42.23
41.76
40.63
39.11
37.48
35.92
34.34
32.51
30.14
27.13
23.63
19.93
16.42
13.40
11.08
9.57
8.88
8.89
9.36
9.97
10.43
10.58
10.39
9.98
9.43
8.83
8.20
7.56
6.98
6.54
6.32
6.28
6.29
6.20
5.94
5.54
5.14
4.88
4.84
4.99
5.24
5.50
5.76
6.06
6.43
6.84
7.18
7.36
7.32
7.09
6.78
6.54
6.43
6.45
6.53
6.59
6.62
6.67
6.83
7.21
7.84
8.69
9.69
10.71
11.67
12.56
13.44
14.44
15.72
17.35
19.31
21.32
22.94
23.71
23.35
22.02
20.24
18.80
18.37
19.17
20.85
22.64
23.82
24.22
24.54
26.16
30.74
39.51
52.63
68.91
86.16
101.84
113.90
121.25
123.61
120.95
112.86
98.28
75.90
44.96
5.64
-41.19
-94.50
-153.37
-216.37
-280.32
-339.45
-385.90
-411.92
-412.76
-388.74
-344.95
-288.86
-227.33
-164.62
-102.65
-42.70
12.83
59.91
94.24
113.28
117.67
110.94
97.93
82.62
67.01
51.05
33.73
14.55
-5.67
-24.93
-40.87
-51.70
-56.85
-56.92
-53.31
-47.56
-40.82
-33.65
-26.20
-18.51
-10.80
-3.61
2.27
6.10
7.40
6.20
3.05
-1.24
-5.82
-10.05
-13.56
-16.25
-18.02
-18.67
-17.80
-14.95
-9.74
-2.02
8.12
20.37
34.38
49.87
66.63
84.45
103.06
121.99
140.56
157.94
173.23
185.60
194.37
199.06
199.41
195.39
187.10
174.85
159.14
140.62
120.07
98.29
76.10
54.28
33.53
14.43
-2.58
-17.26
-29.55
-39.66
-47.87
-54.54
-59.92
-64.16
-67.37
-69.65
-71.13
-72.00
-72.40
-72.37
-71.81
-70.53
-68.38
-65.26
-61.27
-56.55
-51.31
-45.67
-39.74
-33.65
-27.61
-21.99
-17.20
-13.58
-11.28
-10.14
-9.84
-9.93
-10.00
-9.74
-8.88
-7.22
-4.56
-0.77
4.15
9.97
16.26
22.52
28.23
33.04
36.77
39.42
41.04
41.77
41.74
41.09
39.95
38.41
36.52
34.22
31.45
28.22
24.60
20.79
17.01
13.52
10.47
8.02
6.28
5.33
5.21
5.83
6.91
8.06
8.81
8.75
7.68
5.54
2.46
-1.40
-5.84
-10.64
-15.55
-20.26
-24.41
-27.69
-29.82
-30.67
-30.23
-28.60
-25.98
-22.63
-18.83
-14.88
-11.04
-7.56
-4.64
-2.53
-1.53
-1.96
-4.11
-8.14
-14.08
-21.80
-31.00
-41.23
-51.84
-62.08
-71.10
-78.08
-82.36
-83.51
-81.36
-75.97
-67.60
-56.73
-44.01
-30.29
-16.52
-3.62
7.77
17.27
24.87
30.74
35.16
38.34
40.49
41.75
42.28
42.23
41.75
40.91
39.68
37.99
35.75
32.94
29.60
25.82
21.67
17.21
12.50
7.60
2.67
-2.10
-6.49
-10.30
-13.39
-15.65
-17.01
-17.33
-16.47
-14.37
-11.06
-6.69
-1.56
4.02
9.73
15.31
20.56
25.29
29.37
32.67
35.12
36.69
37.39
37.23
36.22
34.37
31.74
28.48
24.82
21.06
17.50
14.37
11.81
9.81
8.32
7.25
6.57
6.26
6.30
6.60
6.95
7.06
6.67
5.66
4.05
2.02
-0.17
-2.30
-4.28
-6.10
-7.82
-9.48
-11.05
-12.43
-13.51
-14.19
-14.42
-14.21
-13.62
-12.72
-11.60
-10.35
-9.04
-7.76
-6.62
-5.74
-5.20
-5.06
-5.26
-5.68
-6.18
-6.64
-7.01
-7.28
-7.47
-7.56
-7.52
-7.34
-7.03
-6.65
-6.27
-5.95
-5.73
-5.62
-5.62
-5.76
-6.08
-6.59
-7.26
-8.01
-8.70
-9.22
-9.45
-9.32
-8.76
-7.74
-6.22
-4.23
-1.81
0.91
3.77
6.64
9.37
11.86
14.06
15.92
17.40
18.44
19.04
19.22
19.11
18.89
18.76
18.91
19.46
20.44
21.80
23.39
25.08
26.67
27.98
28.83
29.08
28.66
27.59
26.01
24.09
22.00
19.83
17.57
15.16
12.58
9.86
7.10
4.38
1.70
-1.03
-3.98
-7.29
-10.99
-15.02
-19.20
-23.45
-27.73
-32.13
-36.73
-41.56
-46.52
-51.46
-56.17
-60.42
-64.05
-66.86
-68.66
-69.24
-68.38
-65.85
-61.43
-54.97
-46.40
-35.84
-23.64
-10.45
3.00
15.91
27.64
37.65
45.51
50.87
53.48
53.34
50.77
46.56
41.78
37.46
34.38
32.71
32.22
32.40
32.73
32.82
32.62
32.18
31.59
30.99
30.25
29.42
28.67
28.21
28.27
29.18
31.12
34.07
37.93
42.01
45.80
48.91
51.09
52.28
52.91
53.33
53.81
54.44
54.42
53.20
50.47
46.11
40.44
34.34
28.67
24.17
21.36
19.61
18.63
18.50
19.60
18.99
14.63
5.11
-9.80
-23.11
-31.27
-32.70
-27.11
-17.55
-6.28
5.22
15.71
24.19
29.83
31.05
27.12
18.10
4.77
-11.25
-27.74
-42.68
-54.46
-62.18
-66.35
-67.77
-67.33
-65.93
-64.12
-62.20
-60.36
-58.70
-57.31
-56.68
-57.05
-58.45
-60.77
-63.62
-66.47
-68.80
-70.08
-69.88
-68.14
-64.81
-59.86
-53.24
-44.82
-34.46
-22.22
-8.42
6.31
20.97
34.52
46.08
55.06
61.24
64.69
65.65
64.50
61.61
57.37
52.11
45.99
39.04
31.16
22.28
12.57
2.47
-7.31
-16.07
-23.34
-29.09
-33.65
-37.49
-41.01
-44.44
-47.81
-51.17
-54.62
-58.36
-62.60
-67.40
-72.68
-78.21
-83.69
-88.82
-93.31
-96.88
-99.26
-100.22
-99.56
-97.13
-92.78
-86.44
-78.08
-67.86
-56.15
-43.57
-30.80
-18.52
-7.23
2.84
11.64
19.26
25.85
31.54
36.42
40.54
43.95
46.65
48.72
50.24
51.32
52.05
52.50
52.62
52.34
51.56
50.30
48.67
46.85
44.92
42.84
40.41
37.40
33.60
29.02
23.81
18.29
12.74
7.35
2.26
-2.48
-6.80
-10.60
-13.71
-16.00
-17.33
-17.65
-16.95
-15.28
-12.77
-9.62
-6.02
-2.17
1.70
5.40
8.70
11.34
13.11
13.89
13.74
12.91
11.74
10.55
9.55
8.73
8.04
7.38
6.76
6.28
6.05
6.09
6.25
6.33
6.06
5.27
3.90
1.94
-0.60
-3.75
-7.56
-12.03
-17.03
-22.32
-27.55
-32.37
-36.44
-39.48
-41.25
-41.51
-40.13
-37.06
-32.45
-26.63
-20.07
-13.22
-6.50
-0.20
5.48
10.41
14.49
17.64
19.85
21.17
21.75
21.74
21.33
20.60
19.61
18.34
16.82
15.10
13.27
11.41
9.56
7.73
5.89
4.10
2.44
1.04
0.01
-0.64
-0.97
-1.09
-1.13
-1.20
-1.36
-1.64
-2.05
-2.57
-3.16
-3.78
-4.36
-4.84
-5.22
-5.50
-5.75
-6.01
-6.31
-6.66
-7.01
-7.32
-7.51
-7.56
-7.44
-7.19
-6.86
-6.49
-6.10
-5.69
-5.26
-4.82
-4.36
-3.91
-3.50
-3.12
-2.75
-2.38
-2.02
-1.69
-1.45
-1.29
-1.20
-1.07
-0.83
-0.41
0.17
0.83
1.42
1.84
2.06
2.11
2.10
2.11
2.14
2.19
2.22
2.21
2.15
2.04
1.87
1.61
1.28
0.88
0.49
0.16
-0.08
-0.31
-0.63
-1.13
-1.80
-2.56
-3.25
-3.75
-4.01
-4.04
-3.95
-3.83
-3.74
-3.70
-3.67
-3.60
-3.42
-3.12
-2.69
-2.15
-1.53
-0.88
-0.23
0.35
0.76
0.90
0.69
0.19
-0.46
-1.04
-1.32
-1.20
-0.71
0.00
0.81
1.59
2.29
2.89
3.36
3.66
3.73
3.54
3.10
2.49
1.73
0.84
-0.17
-1.33
-2.60
-3.91
-5.13
-6.12
-6.77
-7.06
-7.04
-6.81
-6.52
-6.24
-5.96
-5.61
-5.08
-4.31
-3.33
-2.25
-1.22
-0.34
0.39
1.06
1.77
2.58
3.44
4.24
4.85
5.21
5.29
5.14
4.82
4.37
3.86
3.29
2.69
2.10
1.56
1.08
0.70
0.43
0.28
0.28
0.42
0.70
1.05
1.37
1.55
1.45
1.03
0.29
-0.63
-1.57
-2.33
-2.81
-2.97
-2.86
-2.54
-2.10
-1.63
-1.22
-0.95
-0.83
-0.86
-0.99
-1.14
-1.30
-1.46
-1.66
-1.88
-2.06
-2.12
-2.00
-1.69
-1.30
-0.91
-0.61
-0.40
-0.23
-0.03
0.22
0.53
0.87
1.21
1.52
1.80
1.99
2.07
2.00
1.81
1.57
1.33
1.14
0.97
0.78
0.53
0.22
-0.13
-0.42
-0.58
-0.58
-0.42
-0.17
0.07
0.23
0.26
0.20
0.11
0.05
0.06
0.13
0.21
0.27
0.32
0.38
0.48
0.61
0.74
0.87
0.99
1.14
1.38
1.66
1.92
2.06
1.98
1.68
1.26
0.84
0.55
0.43
0.48
0.64
0.86
1.14
1.48
1.82
2.07
2.10
1.82
1.24
0.49
-0.23
-0.76
-1.03
-1.09
-1.10
-1.16
-1.31
-1.49
-1.61
-1.61
-1.49
-1.32
-1.19
-1.13
-1.18
-1.33
-1.55
-1.80
-2.04
-2.22
-2.29
-2.25
-2.16
-2.09
-2.10
-2.16
-2.19
-2.08
-1.79
-1.34
-0.82
-0.30
0.17
0.60
0.97
1.26
1.38
1.29
1.04
0.72
0.47
0.38
0.43
0.54
0.59
0.56
0.47
0.40
0.41
0.48
0.57
0.61
0.58
0.51
0.48
0.55
0.72
0.97
1.20
1.34
1.33
1.15
0.86
0.59
0.46
0.58
0.96
1.53
2.14
2.62
2.88
2.92
2.83
2.72
2.67
2.71
2.78
2.78
2.67
2.40
2.00
1.48
0.84
0.09
-0.83
-1.96
-3.34
-5.00
-6.97
-9.27
-11.87
-14.75
-17.85
-21.12
-24.41
-27.53
-30.15
-31.91
-32.41
-31.37
-28.70
-24.49
-19.00
-12.55
-5.50
1.80
8.99
15.67
21.49
26.14
29.49
31.53
32.35
32.09
30.91
29.00
26.56
23.87
21.14
18.55
16.16
13.98
11.96
10.08
8.34
6.76
5.36
4.12
3.03
2.07
1.21
0.41
-0.40
-1.26
-2.18
-3.07
-3.82
-4.36
-4.67
-4.87
-5.10
-5.45
-5.90
-6.36
-6.66
-6.72
-6.53
-6.14
-5.67
-5.17
-4.66
-4.12
-3.56
-2.97
-2.42
-1.95
-1.61
-1.37
-1.18
-0.92
-0.53
0.01
0.66
1.30
1.81
2.12
2.21
2.12
1.94
1.76
1.66
1.67
1.78
1.94
2.11
2.25
2.29
2.21
1.98
1.60
1.11
0.62
0.20
-0.07
-0.19
-0.21
-0.22
-0.29
-0.42
-0.57
-0.69
-0.73
-0.69
-0.60
-0.47
-0.30
-0.10
0.08
0.18
0.17
0.05
-0.13
-0.31
-0.42
-0.47
-0.51
-0.60
-0.77
-1.02
-1.29
-1.50
-1.61
-1.59
-1.47
-1.27
-1.03
-0.79
-0.57
-0.42
-0.36
-0.43
-0.59
-0.80
-0.95
-0.96
-0.79
-0.48
-0.16
0.05
0.07
-0.11
-0.38
-0.64
-0.76
-0.72
-0.56
-0.36
-0.24
-0.24
-0.38
-0.57
-0.71
-0.70
-0.47
-0.08
0.37
0.76
1.00
1.09
1.08
1.02
0.94
0.84
0.71
0.55
0.38
0.23
0.09
-0.03
-0.18
-0.34
-0.52
-0.68
-0.79
-0.83
-0.80
-0.74
-0.70
-0.70
-0.74
-0.77
-0.73
-0.55
-0.20
0.25
0.73
1.10
1.30
1.29
1.12
0.80
0.41
-0.03
-0.44
-0.76
-0.90
-0.83
-0.57
-0.21
0.13
0.39
0.52
0.55
0.51
0.41
0.27
0.07
-0.17
-0.39
-0.56
-0.61
-0.52
-0.29
0.05
0.44
0.80
1.05
1.09
0.89
0.49
-0.01
-0.45
-0.74
-0.83
-0.79
-0.71
-0.63
-0.55
-0.43
-0.25
-0.03
0.17
0.29
0.31
0.26
0.19
0.11
-0.00
-0.18
-0.43
-0.70
-0.90
-0.95
-0.80
-0.54
-0.24
-0.03
0.06
0.06
0.06
0.12
0.27
0.47
0.62
0.68
0.63
0.52
0.40
0.31
0.22
0.10
-0.11
-0.40
-0.71
-0.97
-1.09
-1.03
-0.80
-0.45
-0.05
0.30
0.49
0.45
0.15
-0.33
-0.86
-1.32
-1.64
-1.82
-1.89
-1.87
-1.74
-1.45
-0.96
-0.32
0.33
0.86
1.16
1.26
1.27
1.32
1.46
1.68
1.89
2.00
1.99
1.87
1.71
1.53
1.35
1.16
0.98
0.88
0.93
1.14
1.50
1.91
2.26
2.51
2.65
2.73
2.78
2.78
2.71
2.49
2.13
1.69
1.22
0.77
0.33
-0.10
-0.53
-0.92
-1.20
-1.25
-1.06
-0.66
-0.11
0.47
0.98
1.35
1.51
1.43
1.16
0.76
0.36
0.08
-0.02
0.04
0.18
0.29
0.27
0.08
-0.26
-0.69
-1.08
-1.34
-1.38
-1.21
-0.92
-0.65
-0.54
-0.61
-0.81
-0.97
-0.97
-0.80
-0.57
-0.48
-0.66
-1.08
-1.58
-1.96
-2.04
-1.82
-1.42
-1.02
-0.78
-0.73
-0.78
-0.85
-0.83
-0.71
-0.53
-0.37
-0.29
-0.30
-0.38
-0.45
-0.47
-0.42
-0.32
-0.27
-0.32
-0.50
-0.75
-0.96
-1.00
-0.81
-0.45
-0.07
0.19
0.23
0.11
-0.04
-0.07
0.11
0.44
0.80
1.02
0.98
0.69
0.25
-0.22
-0.55
-0.66
-0.53
-0.23
0.10
0.35
0.44
0.42
0.34
0.29
0.26
0.19
0.02
-0.23
-0.46
-0.56
-0.44
-0.13
0.21
0.40
0.33
0.02
-0.40
-0.75
-0.90
-0.78
-0.45
-0.03
0.34
0.52
0.48
0.29
0.07
-0.03
0.05
0.27
0.50
0.65
0.70
0.71
0.77
0.94
1.14
1.25
1.11
0.68
0.03
-0.66
-1.20
-1.51
-1.60
-1.56
-1.49
-1.39
-1.22
-0.91
-0.44
0.13
0.69
1.16
1.56
1.98
2.55
3.31
4.18
5.03
5.72
6.18
6.47
6.73
7.07
7.54
8.10
8.65
9.13
9.57
10.00
10.45
10.90
11.28
11.46
11.35
10.92
10.22
9.34
8.28
7.04
5.58
3.83
1.75
-0.83
-4.10
-8.31
-13.62
-20.18
-27.97
-36.81
-46.46
-56.71
-67.43
-78.52
-89.87
-100.43
-109.15
-114.93
-116.74
-113.84
-105.93
-93.31
-76.90
-58.09
-38.33
-19.15
-1.62
13.73
26.79
37.76
46.88
54.30
60.00
63.98
66.06
66.32
65.20
63.46
62.08
61.97
63.62
66.97
72.00
77.90
83.86
89.32
93.83
97.00
98.31
97.08
91.85
82.45
69.26
53.29
35.89
18.36
1.72
-13.43
-26.89
-38.55
-48.14
-55.73
-61.05
-63.79
-63.87
-61.43
-56.83
-50.51
-42.79
-33.79
-23.74
-12.93
-1.87
8.74
18.06
25.44
30.49
33.21
33.90
33.00
30.94
28.07
24.64
20.84
16.90
13.04
9.45
6.24
3.37
0.67
-2.12
-5.09
-8.33
-11.90
-15.77
-19.84
-23.96
-27.90
-31.43
-34.30
-36.25
-37.15
-36.92
-35.64
-33.45
-30.59
-27.28
-23.70
-19.96
-16.14
-12.27
-8.42
-4.70
-1.25
1.73
4.06
5.60
6.32
6.34
5.84
5.09
4.39
3.92
3.75
3.83
4.01
4.16
4.23
4.30
4.49
4.96
5.71
6.64
7.51
8.09
8.25
8.00
7.44
6.68
5.71
4.44
2.75
0.61
-1.85
-4.37
-6.70
-8.66
-10.27
-11.65
-12.92
-14.10
-15.02
-15.41
-14.96
-13.48
-10.92
-7.35
-2.97
2.03
7.39
12.80
17.87
22.19
25.41
27.32
27.85
27.06
25.06
21.90
17.62
12.25
5.96
-0.93
-7.96
-14.64
-20.56
-25.55
-29.64
-33.09
-36.25
-39.33
-42.32
-44.96
-46.83
-47.50
-46.67
-44.18
-39.98
-34.09
-26.55
-17.48
-7.15
3.94
15.15
25.73
35.00
42.45
47.75
50.77
51.45
49.83
46.03
40.31
33.07
24.87
16.33
8.04
0.49
-6.02
-11.30
-15.25
-17.69
-18.44
-17.32
-14.31
-9.62
-3.71
2.75
9.07
14.63
18.99
21.91
23.31
23.23
21.78
19.19
15.75
11.87
8.00
4.55
1.88
0.22
-0.33
0.20
1.69
3.90
6.53
9.23
11.68
13.60
14.83
15.28
14.91
13.76
11.88
9.41
6.49
3.28
-0.07
-3.48
-6.85
-10.08
-13.04
-15.59
-17.58
-18.94
-19.65
-19.68
-19.01
-17.63
-15.51
-12.75
-9.54
-6.13
-2.79
0.31
3.09
5.57
7.73
9.51
10.82
11.53
11.62
11.16
10.24
8.97
7.39
5.49
3.29
0.87
-1.62
-4.00
-6.19
-8.16
-9.96
-11.66
-13.27
-14.71
-15.84
-16.51
-16.58
-16.06
-15.01
-13.64
-12.19
-10.88
-9.83
-8.98
-8.14
-7.00
-5.36
-3.16
-0.56
2.17
4.71
6.81
8.36
9.36
9.87
9.99
9.77
9.22
8.38
7.28
6.04
4.78
3.60
2.53
1.51
0.43
-0.76
-2.05
-3.34
-4.48
-5.39
-6.10
-6.68
-7.25
-7.83
-8.31
-8.42
-7.82
-6.18
-3.29
0.84
5.98
11.75
17.67
23.26
28.15
32.02
34.66
35.95
35.81
34.23
31.22
26.83
21.14
14.29
6.53
-1.76
-10.11
-18.00
-24.91
-30.46
-34.40
-36.61
-37.15
-36.15
-33.83
-30.47
-26.38
-21.87
-17.24
-12.75
-8.55
-4.73
-1.28
1.81
4.55
6.92
8.86
10.29
11.06
11.06
10.23
8.59
6.36
3.89
1.60
-0.12
-0.98
-0.91
-0.01
1.44
3.07
4.50
5.40
5.56
4.91
3.54
1.68
-0.42
-2.51
-4.43
-6.13
-7.65
-9.12
-10.66
-12.34
-14.08
-15.67
-16.81
-17.19
-16.55
-14.83
-12.10
-8.55
-4.43
0.04
4.69
9.36
13.92
18.22
22.08
25.30
27.71
29.13
29.43
28.57
26.55
23.50
19.65
15.31
10.85
6.59
2.80
-0.36
-2.83
-4.59
-5.72
-6.24
-6.21
-5.69
-4.77
-3.60
-2.35
-1.24
-0.42
0.02
0.08
-0.21
-0.83
-1.75
-2.98
-4.52
-6.35
-8.39
-10.50
-12.48
-14.11
-15.11
-15.19
-14.16
-12.04
-9.00
-5.42
-1.75
1.57
4.23
6.05
7.01
7.18
6.74
5.87
4.74
3.42
1.90
0.14
-1.92
-4.24
-6.72
-9.16
-11.36
-13.10
-14.19
-14.49
-13.93
-12.52
-10.35
-7.61
-4.52
-1.33
1.75
4.56
7.00
9.03
10.70
12.08
13.23
14.09
14.53
14.35
13.40
11.67
9.34
6.77
4.37
2.52
1.44
1.20
1.71
2.82
4.30
5.93
7.46
8.61
9.12
8.78
7.52
5.33
2.36
-1.18
-5.08
-9.18
-13.33
-17.42
-21.28
-24.68
-27.35
-29.07
-29.68
-29.11
-27.36
-24.42
-20.30
-15.03
-8.86
-2.19
4.33
10.02
14.31
16.91
17.80
17.22
15.53
13.13
10.46
7.95
5.98
4.81
4.47
4.82
5.55
6.37
7.05
7.52
7.73
7.65
7.23
6.39
5.15
3.59
1.90
0.28
-1.14
-2.28
-3.10
-3.49
-3.26
-2.29
-0.58
1.61
3.83
5.54
6.36
6.17
5.10
3.48
1.64
-0.13
-1.66
-2.87
-3.72
-4.27
-4.60
-4.85
-5.18
-5.71
-6.52
-7.59
-8.80
-9.97
-10.90
-11.36
-11.18
-10.25
-8.55
-6.12
-3.07
0.41
4.01
7.37
10.09
11.91
12.77
12.83
12.40
11.82
11.33
11.06
11.06
11.37
12.00
12.90
13.95
14.89
15.45
15.46
14.91
14.01
13.02
12.10
11.25
10.24
8.74
6.52
3.54
0.03
-3.60
-6.86
-9.33
-10.79
-11.17
-10.63
-9.44
-7.93
-6.44
-5.24
-4.46
-4.12
-4.12
-4.27
-4.41
-4.40
-4.16
-3.62
-2.74
-1.51
-0.05
1.44
2.63
3.21
2.96
1.87
0.11
-2.00
-4.19
-6.22
-8.00
-9.49
-10.72
-11.70
-12.43
-12.92
-13.13
-13.04
-12.61
-11.86
-10.84
-9.62
-8.28
-6.80
-5.07
-3.00
-0.56
2.09
4.57
6.47
7.49
7.59
7.10
6.53
6.47
7.27
8.98
11.25
13.48
15.16
16.06
16.40
16.81
18.02
20.54
24.36
28.97
33.45
36.74
37.79
35.74
30.16
21.22
9.91
-2.04
-12.45
-19.25
-21.16
-17.96
-10.50
-0.34
10.60
20.44
27.61
30.99
30.22
25.72
18.73
10.78
3.20
-3.53
-9.66
-15.81
-22.54
-30.41
-40.53
-54.50
-73.99
-99.01
-126.77
-151.95
-168.75
-173.64
-167.05
-152.58
-134.37
-114.27
-90.74
-60.54
-21.79
23.75
70.85
113.25
146.57
169.51
183.15
189.45
189.49
182.92
168.84
147.26
119.90
89.81
60.78
35.34
14.71
-1.07
-13.02
-22.38
-30.36
-37.83
-45.37
-53.07
-60.96
-68.69
-75.50
-80.38
-82.28
-80.66
-75.71
-68.39
-60.06
-52.08
-45.35
-40.23
-36.73
-34.60
-33.48
-32.84
-31.98
-30.05
-26.42
-20.74
-13.12
-4.20
5.19
14.20
22.20
28.89
34.19
38.06
40.42
41.13
40.03
37.09
32.55
26.98
21.20
16.11
12.41
10.38
9.86
10.31
11.11
11.89
12.73
14.10
16.56
20.34
25.03
29.64
32.99
34.25
33.34
31.03
28.54
27.02
27.01
28.28
30.04
31.05
29.88
25.07
15.60
1.69
-14.66
-29.70
-39.13
-39.94
-32.12
-19.26
-7.27
-1.74
-5.46
-17.38
-33.49
-49.10
-60.85
-67.54
-69.53
-67.59
-62.17
-53.42
-41.67
-27.76
-12.78
2.46
17.62
32.54
46.24
56.44
60.08
54.51
38.78
14.22
-16.04
-48.14
-78.22
-102.95
-119.58
-125.89
-120.47
-103.43
-76.86
-44.66
-11.81
18.08
42.90
61.97
75.73
85.04
90.74
93.39
92.76
88.86
82.06
72.94
62.27
50.93
39.70
29.19
19.78
11.77
5.44
1.04
-1.43
-2.27
-1.87
-0.68
0.99
3.01
5.27
7.73
10.24
12.47
14.06
14.80
14.59
13.47
11.44
8.49
4.69
0.26
-4.37
-8.66
-12.05
-14.14
-14.85
-14.42
-13.23
-11.66
-9.96
-8.23
-6.43
-4.42
-2.20
0.19
2.61
4.88
6.86
8.52
9.84
10.83
11.31
11.08
9.96
7.97
5.41
2.79
0.58
-1.03
-2.25
-3.55
-5.39
-7.91
-10.75
-13.27
-14.85
-15.21
-14.62
-13.65
-12.82
-12.26
-11.67
-10.50
-8.42
-5.50
-2.30
0.47
2.31
3.15
3.32
3.26
3.25
3.32
3.26
2.85
2.03
0.97
-0.04
-0.77
-1.10
-1.08
-0.83
-0.48
-0.09
0.30
0.68
1.00
1.21
1.31
1.32
1.31
1.30
1.27
1.11
0.77
0.24
-0.36
-0.80
-0.88
-0.57
-0.04
0.38
0.36
-0.23
-1.23
-2.33
-3.20
-3.71
-3.97
-4.23
-4.70
-5.39
-6.11
-6.53
-6.37
-5.57
-4.24
-2.65
-1.05
0.40
1.69
2.85
3.98
5.05
5.92
6.38
6.29
5.64
4.66
3.73
3.22
3.26
3.66
3.97
3.75
2.74
1.01
-1.17
-3.52
-5.97
-8.65
-11.78
-15.54
-19.87
-24.51
-29.14
-33.51
-37.52
-41.13
-44.21
-46.47
-47.41
-46.46
-43.17
-37.48
-29.74
-20.76
-11.59
-3.26
3.36
7.75
9.72
9.28
6.50
1.45
-5.74
-14.81
-25.20
-36.03
-46.15
-54.39
-59.75
-61.62
-59.81
-54.46
-45.91
-34.57
-20.98
-5.83
9.94
25.11
38.34
48.40
54.51
56.46
54.64
49.91
43.31
35.90
28.62
22.25
17.45
14.73
14.38
16.44
20.60
26.25
32.62
38.88
44.41
48.87
52.20
54.50
55.94
56.56
56.30
54.97
52.40
48.59
43.66
37.88
31.55
24.99
18.46
12.17
6.38
1.32
-2.84
-5.97
-8.06
-9.15
-9.33
-8.65
-7.22
-5.16
-2.74
-0.29
1.88
3.50
4.49
4.90
4.89
4.58
4.04
3.29
2.28
0.99
-0.54
-2.20
-3.81
-5.17
-6.14
-6.68
-6.84
-6.78
-6.69
-6.67
-6.74
-6.82
-6.89
-6.99
-7.23
-7.79
-8.69
-9.84
-10.98
-11.87
-12.43
-12.80
-13.20
-13.79
-14.49
-15.02
-14.96
-14.09
-12.46
-10.40
-8.33
-6.55
-5.12
-3.89
-2.65
-1.31
0.00
1.03
1.51
1.36
0.69
-0.22
-1.06
-1.55
-1.59
-1.16
-0.35
0.73
1.99
3.38
4.84
6.34
7.77
8.98
9.81
10.11
9.81
8.93
7.59
5.94
4.12
2.22
0.26
-1.82
-4.01
-6.27
-8.56
-10.78
-13.01
-15.35
-18.09
-21.56
-26.09
-31.88
-38.82
-46.51
-54.25
-61.21
-66.63
-69.90
-70.65
-68.68
-63.90
-56.33
-46.17
-33.85
-20.09
-5.83
7.97
20.48
31.13
39.67
46.05
50.39
52.88
53.75
53.25
51.66
49.28
46.40
43.30
40.16
37.05
33.95
30.76
27.41
23.87
20.28
16.84
13.79
11.33
9.49
8.20
7.26
6.53
5.95
5.58
5.46
5.58
5.77
5.80
5.43
4.62
3.52
2.46
1.74
1.48
1.61
1.97
2.41
2.95
3.70
4.76
6.13
7.58
8.70
9.13
8.64
7.32
5.47
3.39
1.31
-0.68
-2.70
-4.91
-7.37
-9.98
-12.30
-13.84
-14.44
-14.22
-13.44
-12.52
-11.81
-11.38
-10.98
-10.01
-7.92
-4.74
-0.74
3.80
8.63
13.76
19.51
26.42
35.19
46.25
59.16
73.06
87.04
100.08
111.27
119.87
124.09
122.55
116.76
107.68
95.00
78.86
59.76
38.66
17.06
-3.12
-19.72
-30.90
-36.15
-36.03
-31.85
-25.52
-18.85
-12.86
-7.46
-1.51
6.37
16.35
26.85
34.42
34.13
20.79
-9.55
-58.17
-122.49
-195.60
-267.19
-324.98
-357.56
-357.78
-324.95
-265.20
-189.67
-110.93
-39.52
18.00
59.29
85.00
97.07
98.07
91.03
79.65
67.89
59.04
54.63
54.15
55.65
56.66
55.49
51.68
45.91
39.37
33.20
28.05
24.04
20.88
17.97
14.76
10.94
6.62
2.43
-0.90
-2.84
-3.26
-2.50
-1.18
0.10
1.01
1.44
1.62
1.83
2.31
3.15
4.26
5.41
6.35
6.87
6.87
6.35
5.41
4.22
3.04
2.12
1.67
1.81
2.51
3.63
4.96
6.30
7.55
8.66
9.66
10.53
11.24
11.68
11.69
11.15
9.98
8.19
5.87
3.16
0.27
-2.68
-5.59
-8.37
-10.89
-12.95
-14.23
-14.50
-13.67
-11.96
-9.81
-7.73
-6.15
-5.27
-5.12
-5.69
-6.97
-8.94
-11.49
-14.34
-16.98
-18.84
-19.52
-18.94
-17.42
-15.53
-13.90
-13.03
-13.20
-14.36
-16.20
-18.20
-19.78
-20.40
-19.70
-17.59
-14.21
-9.93
-5.24
-0.61
3.54
6.82
8.86
9.43
8.59
6.63
4.13
1.68
-0.15
-1.02
-0.77
0.61
3.08
6.45
10.44
14.61
18.42
21.49
23.64
24.85
25.22
24.69
23.04
20.01
15.49
9.70
3.21
-3.24
-8.98
-13.70
-17.39
-20.22
-22.27
-23.32
-22.95
-20.77
-16.68
-11.10
-4.76
1.54
7.32
12.54
17.56
22.68
27.90
32.78
36.66
39.00
39.60
38.71
36.74
34.03
30.50
25.80
19.47
11.41
1.96
-8.09
-17.81
-26.39
-33.32
-38.45
-41.81
-43.45
-43.36
-41.46
-37.84
-32.74
-26.65
-20.23
-14.17
-9.08
-5.41
-3.33
-2.76
-3.38
-4.71
-6.28
-7.70
-8.83
-9.60
-10.09
-10.26
-9.98
-8.99
-7.06
-4.06
-0.02
4.93
10.67
17.04
23.93
31.12
38.33
45.16
51.17
55.99
59.28
60.79
60.37
57.97
53.74
48.00
41.25
33.99
26.65
19.46
12.51
5.90
-0.28
-5.83
-10.61
-14.55
-17.78
-20.54
-23.10
-25.59
-27.88
-29.74
-30.97
-31.57
-31.71
-31.73
-31.92
-32.44
-33.17
-33.82
-33.91
-33.11
-31.26
-28.42
-24.77
-20.64
-16.43
-12.61
-9.36
-6.48
-3.68
-0.64
2.88
6.92
11.06
14.38
15.65
14.03
9.46
2.37
-6.43
-16.29
-27.14
-40.13
-57.60
-82.49
-116.13
-157.96
-205.78
-255.65
-301.79
-336.65
-351.51
-338.20
-291.81
-215.20
-114.89
-1.06
114.30
219.83
306.95
370.85
410.52
424.92
416.24
389.53
351.11
307.31
263.11
221.10
181.56
143.40
105.56
68.37
33.86
3.90
-20.07
-37.56
-49.29
-56.97
-62.61
-67.69
-72.29
-75.18
-74.83
-70.26
-61.56
-50.53
-40.14
-33.36
-32.00
-35.67
-42.04
-47.81
-49.91
-46.93
-39.84
-31.98
-28.20
-33.65
-51.87
-82.93
-122.35
-161.04
-187.36
-190.57
-164.84
-112.02
-42.02
30.12
89.11
124.53
133.63
120.97
95.44
66.39
40.85
22.98
14.36
14.99
23.79
38.79
57.13
75.26
89.31
96.01
93.44
81.34
61.19
35.89
9.29
-14.69
-33.20
-45.20
-51.68
-54.85
-56.92
-58.97
-60.55
-60.24
-56.72
-49.87
-41.01
-32.29
-25.73
-22.46
-22.31
-23.94
-25.48
-25.13
-21.87
-15.75
-7.87
0.18
6.83
11.10
12.95
12.78
11.92
11.17
10.54
9.04
5.09
-2.78
-15.44
-32.64
-54.07
-78.83
-104.89
-128.45
-144.06
-146.07
-131.01
-99.75
-57.91
-14.31
22.55
47.44
59.84
62.85
60.90
57.30
53.31
48.86
43.66
38.22
33.69
31.01
30.18
30.19
29.60
27.21
22.82
17.23
11.89
8.20
7.04
8.47
11.83
16.31
21.31
26.72
32.62
39.14
46.12
53.11
59.38
64.36
67.77
69.77
71.08
72.72
75.85
81.13
88.11
94.80
98.10
94.78
82.97
63.25
38.59
13.36
-8.46
-24.64
-35.17
-41.53
-45.51
-48.23
-49.84
-50.11
-49.02
-47.18
-45.58
-45.10
-46.03
-47.96
-50.04
-51.23
-50.90
-48.84
-45.27
-40.63
-35.36
-29.81
-24.18
-18.64
-13.32
-8.41
-3.99
-0.02
3.64
7.18
10.72
14.34
17.93
21.36
24.44
27.04
29.01
30.15
30.31
29.31
27.23
24.31
20.84
17.08
13.24
9.44
5.75
2.28
-0.82
-3.34
-5.12
-6.05
-6.15
-5.55
-4.46
-3.18
-2.03
-1.36
-1.49
-2.66
-5.05
-8.63
-13.23
-18.46
-23.86
-28.93
-33.23
-36.42
-38.23
-38.52
-37.20
-34.33
-30.05
-24.71
-18.73
-12.62
-6.82
-1.68
2.56
5.75
7.76
8.56
8.20
6.95
5.16
3.26
1.56
0.23
-0.73
-1.31
-1.49
-1.15
-0.16
1.53
3.81
6.44
9.17
11.88
14.57
17.34
20.25
23.17
25.82
27.83
28.86
28.77
27.61
25.59
22.94
19.85
16.35
12.42
8.02
3.18
-2.00
-7.28
-12.42
-17.17
-21.32
-24.73
-27.33
-29.12
-30.15
-30.48
-30.24
-29.56
-28.52
-27.11
-25.28
-22.89
-19.84
-16.10
-11.76
-7.03
-2.18
2.49
6.74
10.45
13.58
16.20
18.43
20.33
21.92
23.13
23.84
23.92
23.25
21.85
19.83
17.41
14.90
12.59
10.68
9.29
8.39
7.93
7.79
7.89
8.13
8.43
8.70
8.88
8.93
8.84
8.63
8.26
7.69
6.80
5.47
3.59
1.09
-2.01
-5.63
-9.60
-13.73
-17.84
-21.79
-25.45
-28.72
-31.46
-33.47
-34.53
-34.48
-33.34
-31.28
-28.61
-25.64
-22.58
-19.49
-16.31
-12.97
-9.48
-5.94
-2.51
0.72
3.70
6.46
9.00
11.23
12.94
13.92
14.07
13.45
12.27
10.87
9.55
8.53
7.92
7.70
7.85
8.30
8.95
9.65
10.21
10.50
10.47
10.17
9.71
9.22
8.72
8.17
7.49
6.65
5.74
4.88
4.23
3.83
3.59
3.32
2.84
2.09
1.17
0.30
-0.29
-0.49
-0.42
-0.32
-0.44
-0.88
-1.53
-2.11
-2.38
-2.23
-1.84
-1.50
-1.47
-1.83
-2.38
-2.81
-2.87
-2.50
-1.89
-1.34
-1.06
-1.08
-1.22
-1.22
-0.93
-0.35
0.28
0.70
0.72
0.35
-0.15
-0.50
-0.52
-0.19
0.23
0.48
0.38
-0.05
-0.56
-0.86
-0.75
-0.20
0.58
1.27
1.62
1.50
1.00
0.36
-0.17
-0.41
-0.32
-0.02
0.34
0.62
0.79
0.88
0.97
1.08
1.18
1.21
1.16
1.07
0.99
0.98
1.02
1.06
1.05
0.99
0.96
1.04
1.31
1.75
2.29
2.85
3.41
3.97
4.56
5.16
5.73
6.24
6.64
6.96
7.22
7.45
7.64
7.79
7.90
8.10
8.53
9.31
10.35
11.36
11.89
11.48
9.93
7.43
4.47
1.65
-0.70
-2.68
-4.81
-7.82
-12.25
-18.15
-24.96
-31.81
-37.76
-42.35
-45.69
-48.38
-51.36
-55.57
-61.82
-70.55
-81.74
-94.12
-105.48
-112.77
-112.90
-103.92
-86.07
-61.88
-35.18
-9.56
12.92
31.96
48.26
62.64
74.99
84.09
88.41
87.14
80.78
71.25
61.36
53.80
50.19
50.40
52.88
55.36
56.32
55.49
53.48
51.36
49.98
49.71
50.67
53.09
57.38
63.61
70.72
76.51
78.25
73.93
63.19
47.43
29.01
10.23
-7.35
-23.04
-36.57
-47.70
-56.35
-62.39
-65.94
-67.39
-67.33
-66.29
-64.52
-61.98
-58.42
-53.67
-47.77
-41.17
-34.56
-28.71
-24.09
-20.78
-18.48
-16.74
-15.18
-13.65
-12.18
-11.04
-10.59
-11.05
-12.50
-14.88
-18.02
-21.75
-25.84
-30.07
-34.24
-38.14
-41.54
-44.22
-45.69
-45.55
-43.44
-39.10
-32.55
-24.08
-14.28
-3.92
6.20
15.42
23.29
29.63
34.47
37.87
39.84
40.50
39.99
38.55
36.46
34.03
31.48
29.08
26.88
24.93
23.44
22.72
23.13
25.01
28.49
33.47
40.02
47.66
55.75
63.59
70.49
75.65
78.29
77.80
73.17
64.71
53.25
39.93
25.86
12.02
-0.98
-12.83
-23.45
-32.85
-40.83
-47.32
-52.19
-55.52
-57.25
-57.40
-56.09
-53.56
-50.07
-45.71
-40.74
-35.44
-30.16
-25.16
-20.72
-17.05
-14.19
-12.10
-10.60
-9.47
-8.52
-7.57
-6.49
-5.25
-3.94
-2.65
-1.51
-0.52
0.35
1.13
1.85
2.52
3.16
3.78
4.42
5.05
5.63
6.02
6.12
5.82
5.13
4.14
2.95
1.68
0.42
-0.78
-1.89
-2.84
-3.58
-4.05
-4.22
-4.02
-3.39
-2.22
-0.49
1.78
4.40
7.08
9.53
11.46
12.72
13.26
13.13
12.44
11.31
9.87
8.27
6.65
5.15
3.84
2.76
1.87
1.14
0.52
-0.03
-0.61
-1.32
-2.28
-3.58
-5.23
-7.14
-9.14
-11.05
-12.70
-13.99
-14.82
-15.11
-14.74
-13.62
-11.78
-9.33
-6.51
-3.58
-0.77
1.77
3.95
5.69
6.93
7.65
7.85
7.62
7.12
6.48
5.82
5.13
4.34
3.38
2.24
0.97
-0.28
-1.34
-2.10
-2.51
-2.60
-2.49
-2.27
-2.01
-1.70
-1.35
-0.94
-0.54
-0.22
-0.05
-0.04
-0.15
-0.31
-0.48
-0.66
-0.91
-1.28
-1.75
-2.25
-2.65
-2.80
-2.61
-2.02
-1.04
0.28
1.82
3.44
4.95
6.21
7.12
7.67
7.89
7.83
7.50
6.86
5.89
4.59
3.03
1.37
-0.27
-1.77
-3.03
-4.02
-4.71
-5.08
-5.15
-4.96
-4.57
-4.05
-3.41
-2.64
-1.73
-0.67
0.46
1.54
2.40
2.96
3.21
3.22
3.16
3.13
3.19
3.35
3.59
3.88
4.23
4.68
5.19
5.72
6.14
6.39
6.40
6.16
5.73
5.16
4.52
3.85
3.17
2.47
1.75
0.96
0.05
-0.99
-2.18
-3.51
-4.97
-6.50
-8.00
-9.29
-10.20
-10.57
-10.31
-9.45
-8.05
-6.21
-3.98
-1.41
1.35
4.10
6.52
8.32
9.27
9.34
8.64
7.41
5.93
4.39
2.94
1.67
0.59
-0.26
-0.86
-1.23
-1.37
-1.34
-1.21
-0.99
-0.66
-0.19
0.49
1.35
2.27
3.08
3.62
3.76
3.49
2.84
1.85
0.56
-0.97
-2.66
-4.38
-5.98
-7.35
-8.46
-9.35
-10.04
-10.53
-10.79
-10.75
-10.41
-9.83
-9.13
-8.41
-7.77
-7.17
-6.56
-5.84
-4.95
-3.85
-2.52
-0.97
0.82
2.79
4.84
6.75
8.31
9.32
9.69
9.48
8.80
7.79
6.49
4.88
2.90
0.56
-2.04
-4.71
-7.22
-9.37
-11.02
-12.12
-12.64
-12.59
-12.02
-10.96
-9.45
-7.53
-5.30
-2.91
-0.57
1.55
3.36
4.88
6.24
7.53
8.78
9.92
10.88
11.62
12.20
12.74
13.34
13.98
14.54
14.83
14.73
14.23
13.40
12.37
11.22
9.95
8.53
6.95
5.22
3.45
1.73
0.12
-1.29
-2.45
-3.26
-3.63
-3.43
-2.62
-1.22
0.63
2.71
4.78
6.61
8.05
9.02
9.50
9.51
9.12
8.40
7.44
6.33
5.14
3.92
2.69
1.47
0.28
-0.84
-1.90
-2.91
-3.98
-5.20
-6.62
-8.21
-9.86
-11.41
-12.71
-13.69
-14.33
-14.70
-14.90
-15.08
-15.36
-15.81
-16.37
-16.88
-17.06
-16.61
-15.33
-13.19
-10.28
-6.80
-2.97
0.99
4.90
8.55
11.70
14.11
15.62
16.12
15.67
14.41
12.57
10.33
7.80
5.06
2.18
-0.72
-3.44
-5.78
-7.64
-9.00
-9.99
-10.75
-11.34
-11.74
-11.84
-11.55
-10.86
-9.84
-8.58
-7.13
-5.42
-3.36
-0.86
2.10
5.39
8.78
12.01
14.86
17.19
18.97
20.21
20.93
21.13
20.75
19.78
18.21
16.16
13.77
11.22
8.66
6.12
3.61
1.03
-1.70
-4.61
-7.66
-10.71
-13.55
-15.99
-17.86
-19.10
-19.72
-19.77
-19.30
-18.35
-16.98
-15.28
-13.33
-11.26
-9.11
-6.94
-4.77
-2.72
-0.94
0.37
1.08
1.18
0.84
0.38
0.17
0.56
1.76
3.81
6.60
9.84
13.14
16.09
18.31
19.48
19.39
17.98
15.30
11.54
7.00
2.02
-3.00
-7.72
-11.85
-15.19
-17.68
-19.31
-20.15
-20.29
-19.77
-18.62
-16.87
-14.56
-11.76
-8.59
-5.23
-1.85
1.31
4.05
6.18
7.60
8.31
8.41
8.05
7.40
6.56
5.57
4.43
3.17
1.86
0.65
-0.28
-0.74
-0.66
-0.09
0.81
1.79
2.61
3.08
3.15
2.88
2.36
1.72
1.04
0.37
-0.26
-0.84
-1.32
-1.59
-1.53
-1.07
-0.19
0.96
2.18
3.24
4.02
4.49
4.75
4.87
4.91
4.87
4.76
4.60
4.51
4.56
4.81
5.21
5.67
6.09
6.41
6.57
6.55
6.27
5.61
4.45
2.76
0.60
-1.87
-4.38
-6.65
-8.46
-9.66
-10.24
-10.23
-9.75
-8.92
-7.83
-6.54
-5.08
-3.48
-1.77
-0.02
1.69
3.29
4.68
5.83
6.70
7.28
7.54
7.50
7.19
6.71
6.16
5.59
4.99
4.30
3.44
2.37
1.12
-0.24
-1.62
-2.95
-4.15
-5.21
-6.14
-7.01
-7.88
-8.84
-9.90
-10.99
-11.93
-12.55
-12.72
-12.39
-11.59
-10.37
-8.77
-6.83
-4.67
-2.48
-0.55
0.87
1.62
1.74
1.47
1.12
0.94
1.07
1.50
2.09
2.69
3.17
3.47
3.49
3.13
2.35
1.18
-0.20
-1.48
-2.32
-2.48
-1.85
-0.50
1.39
3.63
6.00
8.35
10.53
12.50
14.22
15.75
17.10
18.20
18.89
19.00
18.43
17.22
15.56
13.70
11.80
9.91
8.01
6.03
3.98
1.90
-0.15
-2.11
-3.94
-5.61
-7.07
-8.25
-9.07
-9.54
-9.70
-9.63
-9.44
-9.15
-8.74
-8.16
-7.36
-6.34
-5.16
-3.92
-2.76
-1.76
-0.96
-0.39
0.01
0.26
0.42
0.52
0.62
0.71
0.77
0.74
0.50
-0.03
-0.91
-2.11
-3.55
-5.11
-6.76
-8.51
-10.39
-12.41
-14.48
-16.45
-18.14
-19.38
-20.04
-20.04
-19.30
-17.81
-15.62
-12.96
-10.18
-7.72
-6.00
-5.25
-5.46
-6.35
-7.55
-8.70
-9.58
-10.20
-10.69
-11.30
-12.27
-13.75
-15.82
-18.49
-21.74
-25.45
-29.40
-33.11
-35.88
-36.92
-35.53
-31.30
-24.27
-14.89
-3.89
7.87
19.56
30.37
39.57
46.52
50.73
51.98
50.47
46.71
41.52
35.76
30.25
25.60
22.15
20.03
19.16
19.46
21.00
23.95
28.54
34.86
42.71
51.50
60.38
68.34
74.40
77.75
77.90
74.82
69.01
61.35
52.89
44.46
36.47
28.88
21.45
13.99
6.52
-0.77
-7.65
-13.96
-19.60
-24.49
-28.47
-31.30
-32.88
-33.25
-32.72
-31.75
-30.78
-30.20
-30.22
-30.80
-31.69
-32.59
-33.17
-33.31
-33.02
-32.44
-31.70
-30.82
-29.77
-28.49
-27.00
-25.38
-23.78
-22.36
-21.24
-20.49
-20.16
-20.23
-20.68
-21.38
-22.15
-22.76
-22.99
-22.70
-21.82
-20.41
-18.56
-16.31
-13.63
-10.51
-7.01
-3.35
0.16
3.20
5.50
6.93
7.48
7.14
5.94
3.88
1.06
-2.38
-6.16
-10.06
-13.94
-17.78
-21.60
-25.42
-29.13
-32.48
-35.16
-36.85
-37.35
-36.58
-34.55
-31.28
-26.79
-21.06
-14.16
-6.22
2.48
11.55
20.55
29.06
36.69
43.10
47.97
51.02
52.01
50.85
47.65
42.64
36.20
28.73
20.70
12.53
4.65
-2.61
-8.99
-14.41
-18.92
-22.70
-25.97
-28.86
-31.43
-33.63
-35.38
-36.62
-37.35
-37.55
-37.13
-35.88
-33.50
-29.65
-24.08
-16.81
-8.13
1.36
10.89
19.60
26.74
31.76
34.37
34.55
32.49
28.53
23.03
16.42
9.16
1.73
-5.37
-11.68
-16.89
-20.84
-23.55
-25.05
-25.37
-24.43
-22.12
-18.37
-13.25
-6.99
0.00
7.32
14.56
21.42
27.65
32.97
37.10
39.75
40.70
39.93
37.63
34.20
30.12
25.86
21.75
17.96
14.54
11.47
8.78
6.51
4.72
3.46
2.72
2.47
2.63
3.17
4.00
5.01
5.99
6.69
6.79
6.02
4.24
1.47
-2.09
-6.17
-10.45
-14.63
-18.46
-21.74
-24.34
-26.17
-27.23
-27.56
-27.32
-26.70
-25.85
-24.79
-23.38
-21.31
-18.26
-14.04
-8.68
-2.42
4.33
11.09
17.39
22.78
26.88
29.47
30.47
30.07
28.66
26.78
24.95
23.57
22.94
23.21
24.45
26.59
29.46
32.69
35.76
38.10
39.15
38.51
36.02
31.73
25.89
18.84
11.00
2.79
-5.35
-12.95
-19.55
-24.73
-28.15
-29.68
-29.36
-27.44
-24.28
-20.33
-15.96
-11.49
-7.20
-3.31
-0.07
2.34
3.85
4.50
4.42
3.79
2.74
1.29
-0.59
-2.94
-5.68
-8.61
-11.46
-13.97
-15.96
-17.37
-18.15
-18.30
-17.77
-16.50
-14.52
-11.96
-9.07
-6.17
-3.50
-1.17
0.84
2.67
4.43
6.11
7.63
8.84
9.66
10.07
10.13
9.94
9.57
9.10
8.60
8.15
7.85
7.73
7.77
7.88
7.94
7.88
7.71
7.49
7.25
7.03
6.81
6.56
6.23
5.84
5.36
4.79
4.14
3.40
2.64
1.94
1.40
1.09
1.01
1.09
1.21
1.27
1.22
1.09
0.93
0.79
0.69
0.61
0.52
0.42
0.32
0.30
0.34
0.38
0.33
0.09
-0.35
-0.85
-1.26
-1.42
-1.30
-1.00
-0.69
-0.51
-0.52
-0.63
-0.71
-0.66
-0.45
-0.17
0.08
0.16
0.04
-0.24
-0.55
-0.78
-0.86
-0.74
-0.48
-0.13
0.26
0.63
0.93
1.12
1.18
1.10
0.90
0.64
0.35
0.08
-0.17
-0.36
-0.47
-0.48
-0.38
-0.22
-0.08
-0.04
-0.11
-0.22
-0.29
-0.27
-0.15
0.02
0.16
0.23
0.24
0.26
0.35
0.53
0.73
0.84
0.79
0.52
0.10
-0.38
-0.79
-1.03
-1.10
-1.02
-0.85
-0.62
-0.34
-0.04
0.26
0.49
0.60
0.58
0.49
0.43
0.50
0.70
0.97
1.20
1.31
1.26
1.09
0.86
0.60
0.32
-0.01
-0.40
-0.86
-1.30
-1.67
-1.92
-2.03
-2.04
-1.98
-1.89
-1.77
-1.61
-1.41
-1.20
-1.03
-0.97
-1.07
-1.32
-1.67
-2.04
-2.34
-2.56
-2.73
-2.91
-3.14
-3.41
-3.66
-3.77
-3.64
-3.19
-2.43
-1.42
-0.29
0.84
1.88
2.77
3.46
3.90
4.03
3.83
3.35
2.71
2.06
1.55
1.22
1.00
0.78
0.49
0.13
-0.21
-0.40
-0.38
-0.14
0.27
0.75
1.24
1.69
2.07
2.34
2.45
2.38
2.14
1.78
1.41
1.09
0.87
0.74
0.66
0.61
0.58
0.54
0.47
0.30
0.01
-0.42
-0.92
-1.40
-1.76
-1.98
-2.06
-2.06
-2.01
-1.92
-1.80
-1.67
-1.57
-1.53
-1.56
-1.62
-1.65
-1.61
-1.52
-1.42
-1.36
-1.34
-1.33
-1.27
-1.16
-1.03
-0.92
-0.89
-0.97
-1.13
-1.35
-1.60
-1.90
-2.28
-2.82
-3.57
-4.57
-5.80
-7.16
-8.52
-9.70
-10.56
-10.97
-10.85
-10.19
-9.08
-7.69
-6.32
-5.22
-4.59
-4.46
-4.69
-5.04
-5.25
-5.12
-4.58
-3.66
-2.42
-0.89
0.96
3.25
6.13
9.74
14.11
19.14
24.59
30.12
35.37
39.98
43.68
46.34
47.92
48.56
48.48
47.94
47.15
46.23
45.21
44.03
42.61
40.86
38.73
36.17
33.12
29.48
25.12
19.93
13.84
6.90
-0.71
-8.68
-16.61
-24.07
-30.73
-36.33
-40.73
-43.93
-45.96
-46.93
-46.96
-46.21
-44.91
-43.24
-41.44
-39.66
-38.02
-36.55
-35.25
-34.12
-33.12
-32.23
-31.35
-30.29
-28.78
-26.57
-23.46
-19.38
-14.44
-8.84
-2.92
2.96
8.39
13.05
16.72
19.35
21.03
21.94
22.27
22.13
21.52
20.33
18.48
15.96
12.88
9.49
6.09
3.07
0.76
-0.62
-1.03
-0.63
0.26
1.22
1.89
2.00
1.48
0.35
-1.19
-2.93
-4.56
-5.78
-6.29
-5.86
-4.44
-2.10
0.90
4.21
7.41
10.10
11.92
12.65
12.27
10.94
8.99
6.82
4.77
3.09
1.82
0.94
0.36
0.03
-0.06
0.13
0.60
1.29
2.06
2.75
3.18
3.30
3.16
2.88
2.63
2.50
2.48
2.49
2.36
2.00
1.38
0.51
-0.62
-2.01
-3.68
-5.57
-7.54
-9.40
-10.96
-12.17
-13.06
-13.76
-14.35
-14.87
-15.25
-15.44
-15.40
-15.16
-14.74
-14.20
-13.56
-12.81
-11.93
-10.87
-9.57
-8.01
-6.20
-4.23
-2.17
-0.08
2.09
4.38
6.78
9.15
11.23
12.69
13.33
13.14
12.29
11.06
9.71
8.36
6.99
5.46
3.70
1.70
-0.38
-2.35
-4.05
-5.39
-6.41
-7.21
-7.90
-8.49
-8.94
-9.16
-9.10
-8.80
-8.34
-7.85
-7.41
-7.09
-6.89
-6.83
-6.90
-7.10
-7.42
-7.81
-8.22
-8.56
-8.83
-9.06
-9.27
-9.47
-9.58
-9.43
-8.89
-7.86
-6.40
-4.64
-2.75
-0.88
0.87
2.36
3.41
3.78
3.27
1.79
-0.55
-3.49
-6.74
-10.06
-13.30
-16.37
-19.16
-21.51
-23.22
-24.11
-24.10
-23.23
-21.62
-19.39
-16.64
-13.39
-9.63
-5.37
-0.67
4.32
9.44
14.49
19.31
23.73
27.52
30.38
32.02
32.22
31.00
28.67
25.72
22.69
19.99
17.80
16.06
14.63
13.38
12.35
11.71
11.71
12.51
14.09
16.22
18.44
20.25
21.24
21.19
20.08
18.06
15.31
12.08
8.66
5.35
2.44
0.12
-1.54
-2.60
-3.16
-3.18
-2.46
-0.66
2.46
6.95
12.44
18.25
23.65
28.00
30.97
32.39
32.28
30.75
27.87
23.62
17.89
10.55
1.48
-9.28
-21.43
-34.40
-47.33
-59.14
-68.76
-75.12
-77.28
-74.51
-66.37
-52.93
-34.87
-13.58
8.92
30.32
48.27
60.89
67.03
66.49
60.03
49.08
35.43
20.78
6.63
-5.95
-16.28
-24.03
-29.16
-31.86
-32.56
-31.88
-30.44
-28.76
-27.11
-25.47
-23.69
-21.56
-19.03
-16.24
-13.41
-10.76
-8.37
-6.21
-4.19
-2.27
-0.51
0.96
2.09
2.98
3.87
5.07
6.85
9.37
12.67
16.79
21.82
27.82
34.79
42.54
50.71
58.88
66.62
73.54
79.29
83.40
85.40
84.78
81.17
74.45
64.86
52.88
39.16
24.38
9.22
-5.72
-19.89
-32.80
-44.02
-53.13
-59.67
-63.20
-63.42
-60.29
-54.15
-45.71
-35.70
-24.90
-14.03
-3.69
5.48
12.72
17.38
18.93
17.18
12.60
5.99
-1.84
-10.09
-18.31
-26.44
-34.55
-42.76
-51.18
-59.28
-66.44
-72.18
-76.14
-78.23
-78.72
-78.02
-77.32
-78.83
-85.24
-99.84
-125.27
-161.09
-204.44
-250.77
-294.45
-329.85
-355.77
-369.47
-366.81
-343.42
-297.07
-227.73
-141.23
-47.00
44.97
126.70
193.97
244.95
279.04
296.33
297.87
286.12
265.35
240.61
216.18
194.81
177.09
162.16
148.70
135.71
122.62
109.36
96.14
83.19
70.95
59.78
49.85
41.33
34.36
28.96
25.15
22.82
21.64
21.24
21.14
20.98
20.54
19.81
18.80
17.58
16.23
14.77
13.32
11.99
10.92
10.21
9.89
9.91
10.10
10.27
10.11
9.36
7.84
5.51
2.52
-0.85
-4.22
-7.27
-9.71
-11.41
-12.35
-12.61
-12.34
-11.72
-10.89
-9.99
-9.07
-8.17
-7.36
-6.70
-6.26
-6.10
-6.23
-6.62
-7.18
-7.87
-8.60
-9.27
-9.79
-10.02
-9.90
-9.41
-8.59
-7.54
-6.38
-5.23
-4.14
-3.16
-2.31
-1.63
-1.14
-0.87
-0.82
-0.99
-1.32
-1.72
-2.09
-2.34
-2.43
-2.37
-2.21
-2.04
-1.92
-1.87
-1.87
-1.87
-1.79
-1.62
-1.38
-1.15
-0.99
-0.96
-1.05
-1.19
-1.30
-1.32
-1.19
-0.94
-0.63
-0.31
-0.05
0.09
0.10
-0.00
-0.18
-0.38
-0.55
-0.65
-0.68
-0.68
-0.65
-0.62
-0.58
-0.48
-0.30
-0.05
0.16
0.22
0.01
-0.49
-1.18
-1.84
-2.30
-2.44
-2.29
-1.97
-1.61
-1.31
-1.09
-0.98
-0.96
-1.04
-1.20
-1.41
-1.58
-1.64
-1.55
-1.35
-1.09
-0.86
-0.70
-0.60
-0.52
-0.45
-0.39
-0.36
-0.37
-0.40
-0.40
-0.31
-0.12
0.15
0.44
0.66
0.77
0.75
0.64
0.51
0.39
0.31
0.27
0.25
0.22
0.18
0.11
0.03
-0.03
-0.06
-0.04
0.03
0.14
0.22
0.23
0.12
-0.10
-0.36
-0.54
-0.60
-0.55
-0.49
-0.52
-0.67
-0.87
-0.99
-0.92
-0.65
-0.28
0.02
0.14
0.09
-0.04
-0.14
-0.15
-0.08
-0.02
-0.02
-0.08
-0.16
-0.20
-0.15
-0.03
0.09
0.08
-0.12
-0.58
-1.27
-2.09
-2.92
-3.60
-4.01
-4.07
-3.77
-3.12
-2.16
-0.97
0.31
1.45
2.19
2.26
1.53
0.03
-2.07
-4.51
-7.02
-9.46
-11.68
-13.57
-14.94
-15.55
-15.19
-13.70
-11.12
-7.63
-3.56
0.73
4.86
8.52
11.48
13.65
14.99
15.52
15.34
14.54
13.25
11.65
9.93
8.26
6.76
5.44
4.27
3.21
2.26
1.44
0.78
0.26
-0.13
-0.43
-0.64
-0.73
-0.66
-0.49
-0.35
-0.42
-0.82
-1.52
-2.37
-3.16
-3.70
-3.94
-3.90
-3.67
-3.28
-2.69
-1.87
-0.82
0.35
1.52
2.53
3.31
3.83
4.09
4.08
3.77
3.16
2.31
1.33
0.34
-0.57
-1.36
-2.05
-2.64
-3.09
-3.28
-3.09
-2.48
-1.53
-0.40
0.69
1.57
2.18
2.55
2.76
2.87
2.89
2.80
2.57
2.19
1.72
1.22
0.75
0.33
-0.03
-0.37
-0.72
-1.13
-1.66
-2.32
-3.10
-3.93
-4.72
-5.35
-5.75
-5.95
-6.00
-6.04
-6.17
-6.46
-6.87
-7.28
-7.49
-7.37
-6.86
-5.99
-4.92
-3.75
-2.56
-1.30
0.10
1.68
3.34
4.88
6.09
6.86
7.25
7.44
7.59
7.75
7.86
7.80
7.49
6.98
6.40
5.86
5.40
4.92
4.28
3.37
2.18
0.74
-0.87
-2.66
-4.64
-6.86
-9.30
-11.83
-14.25
-16.34
-17.94
-18.91
-19.20
-18.75
-17.52
-15.48
-12.66
-9.21
-5.36
-1.42
2.38
5.81
8.76
11.14
12.90
14.03
14.57
14.62
14.35
13.95
13.59
13.32
13.12
12.91
12.53
11.88
10.87
9.46
7.67
5.54
3.15
0.57
-2.12
-4.83
-7.47
-9.92
-12.05
-13.68
-14.66
-14.83
-14.13
-12.61
-10.36
-7.58
-4.41
-1.02
2.43
5.74
8.67
10.98
12.47
13.04
12.77
11.83
10.53
9.18
8.10
7.46
7.31
7.56
8.05
8.66
9.37
10.21
11.21
12.32
13.33
13.98
14.06
13.54
12.63
11.66
10.97
10.73
10.90
11.17
11.14
10.42
8.85
6.60
4.14
2.03
0.68
0.18
0.29
0.63
0.98
1.46
2.63
5.09
9.26
15.05
21.93
29.12
35.73
40.96
44.01
44.15
40.77
33.65
23.29
11.07
-1.04
-11.33
-19.17
-25.56
-32.67
-42.71
-56.78
-74.31
-93.61
-112.83
-131.06
-148.35
-164.85
-179.56
-189.72
-191.43
-181.22
-157.86
-123.06
-81.03
-37.03
4.16
39.17
66.18
84.57
94.63
97.24
93.94
86.76
77.91
69.44
62.73
58.41
56.36
55.96
56.41
56.81
56.39
54.69
51.64
47.49
42.76
38.03
33.68
29.82
26.29
22.84
19.30
15.63
12.00
8.63
5.70
3.29
1.35
-0.23
-1.60
-2.87
-4.15
-5.50
-6.94
-8.42
-9.82
-10.98
-11.73
-11.96
-11.65
-10.84
-9.67
-8.31
-6.88
-5.50
-4.18
-2.90
-1.57
-0.13
1.47
3.23
5.10
7.01
8.87
10.52
11.81
12.53
12.47
11.49
9.58
6.87
3.63
0.28
-2.80
-5.27
-6.98
-7.90
-8.14
-7.85
-7.21
-6.30
-5.19
-3.95
-2.62
-1.27
0.05
1.24
2.19
2.76
2.83
2.30
1.10
-0.77
-3.30
-6.44
-10.16
-14.32
-18.74
-23.18
-27.33
-30.85
-33.44
-34.86
-35.00
-33.89
-31.70
-28.65
-24.99
-20.93
-16.61
-12.26
-8.14
-4.65
-2.23
-1.23
-1.79
-3.82
-7.09
-11.26
-16.00
-20.86
-25.17
-28.03
-28.29
-24.79
-16.52
-2.87
16.32
40.61
68.98
99.66
130.08
157.14
177.65
188.92
189.45
179.25
159.86
134.01
104.89
75.33
47.11
20.62
-4.77
-29.74
-53.99
-75.72
-91.80
-98.88
-94.83
-79.69
-55.85
-27.43
0.99
25.31
42.42
50.55
49.24
39.49
23.66
4.98
-13.65
-30.99
-48.20
-68.24
-93.84
-125.18
-158.51
-186.75
-201.58
-196.27
-167.93
-118.48
-54.04
16.56
83.72
139.01
176.41
193.51
191.83
176.12
152.38
125.86
99.61
74.15
48.57
21.20
-9.65
-45.05
-84.96
-128.01
-171.31
-210.62
-241.38
-259.48
-263.11
-253.24
-233.30
-207.96
-181.91
-158.79
-140.46
-128.12
-118.53
-106.66
-87.21
-56.49
-13.77
38.22
94.04
147.49
191.78
222.74
239.44
243.48
237.41
223.54
203.85
180.79
157.86
139.26
128.89
128.05
134.45
142.76
146.44
140.26
122.27
94.31
60.93
27.77
-0.91
-23.36
-40.11
-52.88
-63.18
-71.82
-78.51
-82.63
-83.87
-82.70
-80.21
-77.54
-75.33
-73.59
-71.91
-69.88
-67.48
-64.99
-62.82
-61.29
-60.38
-59.76
-58.79
-56.84
-53.43
-48.34
-41.66
-33.73
-25.10
-16.41
-8.14
-0.46
6.71
13.51
19.91
25.48
29.59
31.71
31.53
29.36
26.00
22.44
19.41
17.23
15.82
15.03
14.70
14.78
15.17
15.70
16.03
15.87
15.19
14.23
13.63
13.82
15.04
17.20
20.02
23.31
27.05
31.41
36.59
43.14
50.77
58.75
66.09
71.73
74.94
75.42
73.37
68.52
61.64
53.50
44.64
35.19
24.96
13.78
1.75
-10.61
-22.36
-32.48
-40.00
-44.07
-44.40
-41.46
-36.37
-30.39
-24.62
-19.58
-14.94
-9.83
-3.26
4.84
13.07
18.73
18.70
10.67
-5.76
-28.83
-55.40
-80.91
-101.84
-116.52
-124.92
-127.92
-126.41
-120.62
-110.53
-96.37
-80.46
-64.55
-50.68
-41.02
-37.53
-41.68
-54.14
-74.41
-100.27
-125.37
-142.13
-143.36
-124.98
-88.18
-39.52
11.28
55.10
86.63
105.67
115.49
120.25
122.72
123.60
122.39
118.76
113.37
107.72
103.45
101.16
100.21
99.26
97.23
94.10
90.59
87.87
85.42
81.34
72.93
58.25
37.35
12.73
-11.48
-31.22
-43.97
-49.46
-49.05
-44.82
-38.61
-31.69
-24.92
-19.08
-14.91
-12.89
-12.98
-14.41
-16.09
-16.96
-16.52
-15.04
-13.31
-12.22
-12.33
-13.64
-15.53
-17.12
-17.59
-16.58
-14.23
-11.15
-8.08
-5.63
-4.09
-3.39
-3.23
-3.28
-3.29
-3.22
-3.09
-2.95
-2.81
-2.65
-2.36
-1.89
-1.24
-0.45
0.40
1.30
2.22
3.14
3.95
4.52
4.65
4.26
3.39
2.19
0.86
-0.45
-1.67
-2.78
-3.77
-4.47
-4.66
-4.08
-2.59
-0.24
2.69
5.79
8.65
10.94
12.54
13.57
14.28
15.00
16.00
17.51
19.68
22.71
26.83
32.30
39.26
47.56
56.72
66.03
74.77
82.37
88.56
93.30
96.56
98.17
97.73
94.75
88.89
80.34
69.92
58.77
47.72
36.67
24.23
7.90
-15.19
-47.40
-89.82
-142.10
-202.37
-267.12
-330.98
-386.84
-426.71
-443.44
-432.85
-395.52
-337.06
-266.65
-194.42
-128.65
-74.00
-31.31
1.26
26.66
47.41
65.02
79.96
92.13
101.47
108.11
112.54
115.28
116.54
116.14
113.71
109.02
102.33
94.40
86.30
78.92
72.64
67.24
62.16
56.90
51.38
46.09
41.83
39.41
39.25
41.14
44.29
47.63
50.18
51.38
51.23
50.14
48.74
47.53
46.69
46.05
45.18
43.72
41.46
38.49
35.08
31.54
28.14
24.98
22.03
19.20
16.44
13.73
11.07
8.52
6.14
4.04
2.29
0.94
-0.05
-0.76
-1.26
-1.63
-1.88
-2.01
-2.01
-1.93
-1.82
-1.78
-1.87
-2.14
-2.62
-3.30
-4.20
-5.28
-6.46
-7.60
-8.57
-9.23
-9.53
-9.51
-9.27
-8.92
-8.57
-8.23
-7.91
-7.57
-7.22
-6.88
-6.58
-6.35
-6.17
-6.02
-5.86
-5.69
-5.49
-5.27
-5.03
-4.78
-4.53
-4.32
-4.17
-4.07
-4.01
-3.95
-3.84
-3.65
-3.36
-2.95
-2.39
-1.69
-0.88
-0.06
0.63
1.04
1.12
0.92
0.57
0.25
0.09
0.09
0.14
0.05
-0.28
-0.88
-1.65
-2.46
-3.19
-3.78
-4.25
-4.58
-4.69
-4.51
-3.86
-2.59
-0.58
2.24
5.80
9.93
14.33
18.66
22.55
25.73
28.10
29.68
30.56
30.88
30.72
30.15
29.27
28.22
27.14
26.17
25.33
24.51
23.48
21.96
19.69
16.52
12.46
7.65
2.36
-3.09
-8.33
-13.03
-16.91
-19.74
-21.44
-22.05
-21.71
-20.67
-19.15
-17.34
-15.36
-13.33
-11.39
-9.70
-8.40
-7.53
-7.05
-6.81
-6.72
-6.79
-7.13
-7.91
-9.20
-10.89
-12.79
-14.68
-16.41
-17.97
-19.42
-20.81
-22.12
-23.33
-24.40
-25.40
-26.44
-27.66
-29.15
-30.97
-33.12
-35.54
-38.18
-40.98
-43.82
-46.56
-49.05
-51.09
-52.49
-53.01
-52.41
-50.50
-47.18
-42.55
-36.82
-30.27
-23.15
-15.60
-7.74
0.31
8.31
15.99
23.10
29.53
35.32
40.65
45.66
50.43
54.87
58.86
62.23
64.91
66.85
68.00
68.30
67.64
65.99
63.42
60.10
56.28
52.11
47.65
42.79
37.41
31.46
25.04
18.43
11.98
5.98
0.61
-4.05
-8.02
-11.28
-13.80
-15.49
-16.31
-16.28
-15.56
-14.37
-13.00
-11.71
-10.68
-10.00
-9.68
-9.62
-9.73
-9.87
-9.93
-9.80
-9.46
-8.95
-8.38
-7.95
-7.86
-8.30
-9.39
-11.10
-13.30
-15.71
-18.07
-20.16
-21.91
-23.37
-24.55
-25.43
-25.83
-25.56
-24.46
-22.54
-20.00
-17.10
-14.16
-11.33
-8.69
-6.18
-3.73
-1.29
1.09
3.33
5.32
7.00
8.37
9.46
10.32
10.92
11.19
11.05
10.50
9.62
8.59
7.58
6.69
5.96
5.39
4.97
4.73
4.62
4.60
4.56
4.42
4.19
3.93
3.73
3.66
3.71
3.80
3.87
3.89
3.89
3.92
3.99
4.07
4.10
4.06
3.96
3.90
4.00
4.35
4.96
5.73
6.50
7.03
7.15
6.76
5.87
4.58
3.03
1.35
-0.39
-2.09
-3.68
-5.03
-6.05
-6.68
-6.96
-6.96
-6.80
-6.58
-6.32
-6.02
-5.66
-5.19
-4.60
-3.91
-3.10
-2.21
-1.27
-0.31
0.56
1.30
1.84
2.16
2.29
2.25
2.07
1.78
1.39
0.94
0.45
-0.03
-0.47
-0.79
-0.95
-0.92
-0.73
-0.44
-0.17
-0.02
-0.06
-0.31
-0.66
-1.01
-1.26
-1.35
-1.29
-1.09
-0.76
-0.29
0.34
1.03
1.63
1.95
1.88
1.38
0.62
-0.17
-0.73
-0.90
-0.65
-0.09
0.60
1.24
1.69
1.90
1.90
1.76
1.56
1.34
1.07
0.74
0.32
-0.17
-0.69
-1.17
-1.54
-1.73
-1.69
-1.36
-0.75
0.03
0.81
1.36
1.55
1.42
1.14
0.98
1.10
1.51
2.06
2.55
2.80
2.77
2.52
2.17
1.81
1.46
1.12
0.78
0.44
0.12
-0.20
-0.52
-0.86
-1.15
-1.33
-1.36
-1.26
-1.16
-1.19
-1.42
-1.83
-2.23
-2.44
-2.32
-1.89
-1.27
-0.68
-0.27
-0.11
-0.20
-0.49
-0.91
-1.41
-1.96
-2.48
-2.92
-3.20
-3.26
-3.10
-2.70
-2.06
-1.24
-0.29
0.65
1.40
1.81
1.80
1.38
0.68
-0.13
-0.88
-1.46
-1.77
-1.79
-1.54
-1.09
-0.53
-0.01
0.35
0.50
0.42
0.18
-0.14
-0.48
-0.75
-0.90
-0.86
-0.62
-0.24
0.20
0.58
0.80
0.83
0.64
0.26
-0.27
-0.91
-1.57
-2.19
-2.69
-3.04
-3.26
-3.37
-3.39
-3.34
-3.25
-3.15
-3.02
-2.87
-2.66
-2.36
-1.98
-1.59
-1.32
-1.23
-1.33
-1.46
-1.47
-1.21
-0.68
0.02
0.73
1.32
1.72
1.94
1.99
1.90
1.69
1.44
1.22
1.15
1.30
1.67
2.17
2.67
3.01
3.10
2.96
2.62
2.18
1.71
1.27
0.87
0.49
0.10
-0.34
-0.83
-1.36
-1.91
-2.48
-3.05
-3.58
-3.98
-4.16
-4.06
-3.72
-3.26
-2.82
-2.53
-2.37
-2.24
-2.02
-1.62
-1.12
-0.67
-0.41
-0.35
-0.40
-0.43
-0.36
-0.24
-0.22
-0.43
-0.87
-1.43
-1.88
-2.02
-1.78
-1.23
-0.53
0.13
0.60
0.81
0.78
0.62
0.45
0.41
0.56
0.83
1.10
1.14
0.82
0.11
-0.80
-1.71
-2.45
-2.98
-3.35
-3.63
-3.86
-3.94
-3.65
-2.69
-0.79
2.19
6.25
11.30
17.18
23.58
30.27
37.06
43.98
51.12
58.60
66.43
74.37
81.95
88.33
92.77
93.77
90.48
82.77
71.28
57.18
41.75
26.81
12.91
0.11
-11.63
-22.28
-31.84
-40.42
-48.11
-55.01
-61.14
-66.49
-70.86
-74.00
-75.66
-75.76
-74.44
-72.00
-68.85
-65.37
-61.93
-58.54
-55.01
-51.00
-46.22
-40.57
-34.21
-27.47
-20.77
-14.56
-9.06
-4.32
-0.23
3.44
6.89
10.24
13.54
16.75
19.83
22.74
25.40
27.69
29.44
30.45
30.51
29.55
27.53
24.54
20.71
16.17
11.02
5.41
-0.49
-6.52
-12.57
-18.67
-24.85
-31.08
-37.26
-43.14
-48.31
-52.25
-54.57
-55.12
-54.08
-51.91
-49.16
-46.49
-44.46
-43.42
-43.46
-44.37
-45.31
-45.38
-43.66
-39.53
-32.93
-24.41
-14.80
-5.07
4.42
13.67
22.64
31.22
39.31
46.87
53.59
59.46
64.72
69.64
74.44
79.09
83.30
86.70
88.84
89.34
88.06
85.00
80.25
73.93
66.17
57.16
47.22
36.81
26.49
16.86
8.42
1.43
-4.18
-8.69
-12.49
-15.92
-19.16
-22.24
-25.05
-27.49
-29.54
-31.20
-32.49
-33.40
-33.89
-33.91
-33.48
-32.59
-31.28
-29.53
-27.32
-24.61
-21.46
-17.96
-14.35
-10.89
-7.90
-5.60
-4.10
-3.35
-3.15
-3.21
-3.30
-3.28
-3.14
-2.94
-2.75
-2.55
-2.31
-1.97
-1.56
-1.15
-0.83
-0.65
-0.62
-0.65
-0.64
-0.54
-0.34
-0.12
0.02
0.02
-0.12
-0.32
-0.51
-0.66
-0.84
-1.14
-1.61
-2.22
-2.84
-3.36
-3.69
-3.84
-3.86
-3.79
-3.60
-3.23
-2.61
-1.75
-0.73
0.33
1.34
2.25
3.02
3.63
4.04
4.20
4.11
3.85
3.53
3.25
3.08
3.00
2.91
2.76
2.51
2.20
1.91
1.71
1.59
1.51
1.38
1.18
0.94
0.73
0.62
0.61
0.67
0.70
0.63
0.42
0.09
-0.28
-0.63
-0.89
-1.01
-0.98
-0.81
-0.55
-0.27
-0.06
0.02
-0.05
-0.25
-0.48
-0.64
-0.65
-0.49
-0.17
0.21
0.55
0.78
0.86
0.79
0.60
0.32
-0.02
-0.38
-0.69
-0.92
-1.03
-1.02
-0.91
-0.75
-0.54
-0.28
0.04
0.40
0.68
0.74
0.52
0.06
-0.50
-0.97
-1.26
-1.41
-1.52
-1.70
-1.91
-2.00
-1.82
-1.32
-0.61
0.10
0.62
0.89
0.99
1.07
1.24
1.50
1.78
1.97
2.01
1.89
1.68
1.42
1.17
0.93
0.73
0.60
0.57
0.67
0.88
1.12
1.31
1.38
1.29
1.07
0.78
0.51
0.31
0.21
0.22
0.28
0.34
0.36
0.33
0.29
0.27
0.30
0.34
0.32
0.15
-0.18
-0.62
-1.04
-1.31
-1.37
-1.24
-0.96
-0.61
-0.23
0.12
0.40
0.57
0.64
0.64
0.61
0.58
0.55
0.48
0.37
0.24
0.15
0.14
0.23
0.38
0.51
0.57
0.56
0.48
0.34
0.17
-0.04
-0.29
-0.55
-0.79
-0.99
-1.11
-1.13
-1.01
-0.73
-0.36
-0.06
-0.03
-0.44
-1.36
-2.68
-4.15
-5.46
-6.33
-6.62
-6.34
-5.63
-4.69
-3.65
-2.62
-1.61
-0.62
0.35
1.27
2.07
2.71
3.16
3.42
3.47
3.19
2.45
1.05
-1.14
-4.14
-7.88
-12.23
-16.95
-21.78
-26.37
-30.35
-33.29
-34.80
-34.58
-32.49
-28.64
-23.32
-16.99
-10.14
-3.20
3.45
9.52
14.71
18.74
21.40
22.68
22.80
22.14
21.16
20.16
19.24
18.33
17.32
16.15
14.84
13.49
12.22
11.07
10.05
9.12
8.28
7.50
6.80
6.16
5.54
4.92
4.25
3.52
2.75
1.97
1.25
0.65
0.24
0.07
0.14
0.40
0.79
1.23
1.67
2.04
2.30
2.39
2.24
1.79
1.08
0.19
-0.67
-1.34
-1.68
-1.68
-1.45
-1.16
-0.94
-0.84
-0.83
-0.82
-0.72
-0.56
-0.39
-0.29
-0.30
-0.39
-0.51
-0.60
-0.66
-0.70
-0.79
-0.98
-1.28
-1.65
-2.05
-2.40
-2.62
-2.67
-2.53
-2.23
-1.85
-1.47
-1.12
-0.75
-0.30
0.29
1.03
1.83
2.59
3.24
3.72
4.08
4.34
4.53
4.62
4.59
4.47
4.28
4.09
3.92
3.78
3.65
3.48
3.23
2.88
2.44
1.90
1.29
0.63
-0.05
-0.71
-1.28
-1.67
-1.78
-1.59
-1.14
-0.62
-0.25
-0.21
-0.55
-1.17
-1.85
-2.40
-2.69
-2.76
-2.72
-2.67
-2.62
-2.52
-2.28
-1.88
-1.42
-1.05
-0.89
-0.93
-1.06
-1.11
-0.96
-0.61
-0.20
0.14
0.34
0.46
0.60
0.87
1.24
1.61
1.84
1.82
1.58
1.23
0.86
0.50
0.07
-0.58
-1.53
-2.77
-4.20
-5.65
-6.96
-8.08
-8.99
-9.72
-10.26
-10.53
-10.42
-9.84
-8.79
-7.36
-5.67
-3.88
-2.08
-0.33
1.29
2.67
3.71
4.36
4.61
4.57
4.34
4.01
3.60
3.09
2.49
1.84
1.24
0.79
0.57
0.57
0.76
1.05
1.39
1.75
2.14
2.56
2.97
3.31
3.45
3.31
2.84
2.11
1.29
0.57
0.09
-0.16
-0.27
-0.40
-0.60
-0.83
-0.95
-0.85
-0.49
0.04
0.59
1.01
1.18
1.08
0.77
0.35
-0.07
-0.38
-0.53
-0.50
-0.36
-0.22
-0.12
-0.07
-0.05
0.03
0.18
0.36
0.52
0.59
0.58
0.50
0.42
0.38
0.43
0.56
0.74
0.94
1.12
1.18
1.07
0.77
0.35
-0.08
-0.35
-0.41
-0.28
-0.10
-0.01
-0.09
-0.33
-0.63
-0.89
-1.04
-1.11
-1.14
-1.20
-1.31
-1.45
-1.61
-1.75
-1.85
-1.89
-1.83
-1.67
-1.40
-1.06
-0.74
-0.51
-0.44
-0.52
-0.69
-0.87
-0.96
-0.93
-0.76
-0.51
-0.22
0.06
0.33
0.58
0.77
0.88
0.88
0.78
0.63
0.51
0.50
0.65
0.94
1.28
1.55
1.67
1.60
1.39
1.18
1.08
1.17
1.42
1.74
1.97
2.01
1.85
1.53
1.16
0.81
0.52
0.29
0.11
0.02
0.03
0.14
0.25
0.26
0.09
-0.24
-0.63
-0.93
-1.06
-0.99
-0.80
-0.57
-0.34
-0.14
0.02
0.15
0.23
0.26
0.23
0.17
0.06
-0.09
-0.29
-0.51
-0.69
-0.79
-0.78
-0.68
-0.53
-0.39
-0.26
-0.10
0.11
0.37
0.60
0.68
0.57
0.29
-0.03
-0.26
-0.30
-0.19
-0.02
0.13
0.20
0.22
0.23
0.25
0.26
0.22
0.12
0.01
-0.05
0.00
0.15
0.31
0.40
0.37
0.28
0.21
0.24
0.40
0.63
0.86
1.05
1.15
1.19
1.14
1.00
0.75
0.41
0.04
-0.22
-0.28
-0.12
0.19
0.51
0.72
0.77
0.70
0.57
0.42
0.23
-0.05
-0.46
-0.96
-1.43
-1.72
-1.75
-1.54
-1.19
-0.86
-0.67
-0.66
-0.78
-0.96
-1.12
-1.22
-1.24
-1.18
-1.10
-1.06
-1.12
-1.32
-1.64
-2.03
-2.39
-2.65
-2.75
-2.66
-2.41
-2.05
-1.67
-1.43
-1.51
-2.09
-3.31
-5.22
-7.81
-11.05
-14.85
-19.12
-23.62
-27.99
-31.69
-34.11
-34.66
-32.90
-28.65
-22.00
-13.33
-3.21
7.69
18.65
29.00
38.11
45.46
50.71
53.77
54.85
54.43
53.11
51.43
49.77
48.30
47.05
46.00
45.13
44.46
43.99
43.71
43.55
43.44
43.32
43.08
42.52
41.28
38.88
34.85
28.87
20.93
11.34
0.67
-10.41
-21.27
-31.34
-40.22
-47.65
-53.54
-57.94
-61.08
-63.22
-64.65
-65.45
-65.59
-64.84
-63.02
-60.02
-55.91
-50.95
-45.48
-39.78
-34.01
-28.20
-22.24
-16.08
-9.70
-3.22
3.14
9.11
14.42
18.85
22.21
24.43
25.46
25.32
24.07
21.77
18.55
14.56
9.94
4.88
-0.53
-6.18
-12.04
-18.01
-23.92
-29.53
-34.52
-38.60
-41.47
-42.86
-42.55
-40.39
-36.37
-30.67
-23.69
-15.98
-8.14
-0.70
5.90
11.42
15.70
18.69
20.42
21.02
20.71
19.77
18.50
17.21
16.15
15.53
15.55
16.29
17.77
19.88
22.42
25.20
28.12
31.19
34.52
38.21
42.18
46.07
49.26
50.92
50.19
46.37
39.09
28.37
14.69
-1.02
-17.52
-33.38
-47.31
-58.37
-66.21
-71.05
-73.46
-74.10
-73.40
-71.42
-67.92
-62.61
-55.32
-46.23
-35.80
-24.63
-13.38
-2.59
7.24
15.66
22.27
26.76
29.02
29.26
27.92
25.62
22.91
20.26
17.97
16.27
15.35
15.39
16.47
18.48
21.05
23.64
25.61
26.50
26.08
24.42
21.82
18.69
15.43
12.33
9.55
7.12
5.01
3.23
1.80
0.72
-0.07
-0.71
-1.40
-2.34
-3.59
-5.10
-6.71
-8.22
-9.46
-10.35
-10.87
-11.08
-11.04
-10.83
-10.53
-10.20
-9.89
-9.61
-9.33
-9.00
-8.58
-8.00
-7.24
-6.32
-5.32
-4.37
-3.64
-3.23
-3.23
-3.59
-4.20
-4.92
-5.62
-6.22
-6.70
-6.99
-6.99
-6.60
-5.72
-4.33
-2.52
-0.44
1.75
3.90
5.88
7.61
8.95
9.80
10.08
9.79
9.04
7.99
6.80
5.56
4.36
3.26
2.37
1.80
1.66
1.94
2.52
3.20
3.78
4.19
4.47
4.73
5.06
5.48
5.88
6.13
6.13
5.86
5.40
4.91
4.52
4.31
4.26
4.24
4.10
3.72
3.09
2.37
1.75
1.39
1.30
1.32
1.20
0.79
0.08
-0.73
-1.37
-1.61
-1.41
-0.93
-0.38
0.08
0.39
0.61
0.83
1.06
1.25
1.31
1.21
0.97
0.68
0.46
0.32
0.24
0.15
0.00
-0.19
-0.39
-0.50
-0.50
-0.39
-0.21
-0.02
0.11
0.18
0.19
0.18
0.22
0.31
0.45
0.62
0.78
0.90
0.98
1.04
1.12
1.22
1.36
1.54
1.72
1.85
1.85
1.67
1.29
0.81
0.36
0.11
0.15
0.47
0.95
1.40
1.65
1.60
1.29
0.83
0.39
0.07
-0.11
-0.23
-0.38
-0.62
-0.90
-1.13
-1.23
-1.15
-0.93
-0.64
-0.35
-0.12
0.02
0.07
0.02
-0.13
-0.37
-0.67
-0.94
-1.10
-1.10
-0.92
-0.59
-0.22
0.06
0.15
0.01
-0.32
-0.67
-0.88
-0.84
-0.55
-0.10
0.37
0.73
0.91
0.90
0.75
0.50
0.20
-0.08
-0.30
-0.43
-0.51
-0.56
-0.64
-0.77
-0.93
-1.07
-1.17
-1.25
-1.32
-1.40
-1.44
-1.34
-1.04
-0.56
-0.05
0.29
0.31
-0.00
-0.53
-1.07
-1.45
-1.63
-1.66
-1.67
-1.69
-1.70
-1.57
-1.21
-0.63
0.02
0.53
0.73
0.58
0.19
-0.23
-0.51
-0.59
-0.52
-0.40
-0.34
-0.35
-0.37
-0.34
-0.22
-0.03
0.15
0.27
0.31
0.28
0.23
0.19
0.17
0.17
0.17
0.14
0.06
-0.10
-0.34
-0.67
-1.11
-1.67
-2.31
-2.99
-3.57
-3.95
-4.04
-3.83
-3.40
-2.85
-2.27
-1.68
-1.04
-0.33
0.42
1.10
1.58
1.75
1.54
1.00
0.24
-0.62
-1.45
-2.21
-2.86
-3.41
-3.83
-4.04
-4.00
-3.64
-3.00
-2.17
-1.28
-0.45
0.24
0.76
1.11
1.27
1.25
1.08
0.86
0.69
0.67
0.80
1.03
1.26
1.42
1.53
1.66
1.89
2.29
2.82
3.43
3.99
4.43
4.71
4.86
4.91
4.89
4.81
4.62
4.30
3.88
3.45
3.12
2.98
3.02
3.13
3.16
2.99
2.59
2.02
1.40
0.84
0.38
-0.01
-0.36
-0.71
-1.06
-1.35
-1.51
-1.51
-1.34
-1.08
-0.82
-0.67
-0.68
-0.82
-1.04
-1.26
-1.44
-1.63
-1.90
-2.30
-2.79
-3.29
-3.68
-3.88
-3.93
-3.85
-3.68
-3.41
-2.98
-2.33
-1.51
-0.62
0.20
0.86
1.38
1.91
2.63
3.68
5.10
6.83
8.74
10.75
12.78
14.81
16.77
18.54
19.93
20.75
20.83
20.19
18.95
17.36
15.68
14.07
12.62
11.27
9.96
8.62
7.25
5.93
4.77
3.86
3.26
2.91
2.70
2.43
1.89
0.89
-0.76
-3.22
-6.58
-10.87
-16.00
-21.81
-28.15
-34.89
-42.00
-49.44
-57.02
-64.33
-70.71
-75.35
-77.49
-76.61
-72.61
-65.78
-56.72
-46.22
-35.14
-24.23
-14.08
-5.03
2.83
9.60
15.50
20.66
25.11
28.73
31.36
32.85
33.17
32.44
30.87
28.76
26.38
23.98
21.73
19.74
18.08
16.76
15.78
15.11
14.69
14.43
14.22
13.99
13.71
13.37
13.00
12.61
12.18
11.64
10.95
10.06
9.01
7.90
6.83
5.92
5.21
4.71
4.39
4.14
3.84
3.36
2.62
1.67
0.67
-0.16
-0.65
-0.77
-0.63
-0.45
-0.38
-0.45
-0.56
-0.53
-0.29
0.10
0.51
0.83
1.05
1.24
1.53
1.91
2.31
2.56
2.50
2.15
1.62
1.11
0.80
0.74
0.89
1.11
1.25
1.22
0.95
0.49
-0.07
-0.57
-0.88
-0.92
-0.69
-0.28
0.18
0.56
0.78
0.78
0.60
0.29
-0.06
-0.40
-0.69
-0.94
-1.17
-1.43
-1.71
-1.98
-2.18
-2.25
-2.22
-2.13
-2.06
-2.03
-2.04
-2.03
-2.00
-1.92
-1.84
-1.74
-1.63
-1.48
-1.27
-0.99
-0.69
-0.39
-0.17
-0.07
-0.12
-0.28
-0.52
-0.74
-0.87
-0.90
-0.85
-0.83
-0.91
-1.11
-1.40
-1.69
-1.90
-2.01
-2.03
-2.00
-1.94
-1.82
-1.60
-1.29
-0.90
-0.46
-0.06
0.22
0.28
0.05
-0.44
-1.11
-1.80
-2.36
-2.75
-3.00
-3.23
-3.54
-3.97
-4.48
-4.97
-5.38
-5.67
-5.83
-5.86
-5.75
-5.49
-5.11
-4.61
-4.01
-3.34
-2.60
-1.87
-1.22
-0.77
-0.55
-0.53
-0.58
-0.58
-0.45
-0.15
0.29
0.88
1.65
2.58
3.58
4.49
5.06
5.11
4.59
3.55
2.16
0.60
-0.89
-2.07
-2.65
-2.35
-0.93
1.63
5.16
9.26
13.45
17.29
20.50
22.96
24.71
25.82
26.42
26.58
26.39
25.95
25.39
24.85
24.46
24.33
24.48
24.88
25.41
25.94
26.30
26.40
26.15
25.55
24.60
23.33
21.74
19.89
17.83
15.65
13.45
11.29
9.19
7.10
4.92
2.61
0.19
-2.19
-4.38
-6.26
-7.83
-9.22
-10.59
-12.01
-13.41
-14.63
-15.53
-16.21
-16.97
-18.27
-20.38
-23.26
-26.48
-29.44
-31.67
-33.02
-33.72
-34.12
-34.54
-35.02
-35.40
-35.44
-34.96
-33.93
-32.37
-30.29
-27.65
-24.43
-20.73
-16.81
-13.08
-9.98
-7.77
-6.52
-6.06
-6.15
-6.57
-7.21
-8.01
-8.95
-10.00
-11.09
-12.20
-13.34
-14.47
-15.50
-16.16
-16.12
-15.12
-13.20
-10.70
-8.22
-6.39
-5.53
-5.63
-6.29
-6.96
-7.11
-6.37
-4.55
-1.64
2.25
6.88
11.85
16.70
20.93
24.18
26.31
27.34
27.44
26.81
25.62
23.94
21.86
19.48
16.96
14.48
12.22
10.29
8.78
7.76
7.24
7.20
7.55
8.08
8.56
8.75
8.48
7.74
6.61
5.26
3.86
2.57
1.44
0.47
-0.36
-1.10
-1.71
-2.14
-2.25
-1.98
-1.31
-0.34
0.72
1.63
2.20
2.39
2.25
1.87
1.38
0.86
0.35
-0.12
-0.53
-0.84
-1.03
-1.11
-1.08
-0.99
-0.91
-0.89
-0.95
-1.11
-1.33
-1.56
-1.78
-2.00
-2.27
-2.63
-3.06
-3.47
-3.75
-3.81
-3.64
-3.31
-2.91
-2.49
-2.06
-1.63
-1.26
-1.01
-0.97
-1.14
-1.40
-1.60
-1.60
-1.38
-1.03
-0.70
-0.48
-0.35
-0.21
0.04
0.46
1.04
1.65
2.18
2.55
2.71
2.69
2.56
2.38
2.21
2.10
2.04
2.01
1.94
1.83
1.68
1.54
1.44
1.41
1.41
1.40
1.36
1.29
1.20
1.07
0.87
0.51
-0.05
-0.79
-1.63
-2.45
-3.16
-3.75
-4.29
-4.90
-5.64
-6.50
-7.37
-8.08
-8.45
-8.33
-7.68
-6.51
-4.96
-3.18
-1.36
0.34
1.81
2.95
3.69
3.97
3.72
2.97
1.81
0.45
-0.87
-1.91
-2.50
-2.62
-2.35
-1.84
-1.20
-0.53
0.12
0.71
1.25
1.73
2.13
2.48
2.78
3.03
3.24
3.35
3.32
3.11
2.72
2.21
1.68
1.23
0.96
0.90
1.06
1.40
1.86
2.36
2.80
3.11
3.19
3.03
2.67
2.20
1.78
1.51
1.42
1.46
1.51
1.43
1.18
0.78
0.35
0.02
-0.16
-0.19
-0.11
-0.00
0.12
0.24
0.37
0.51
0.64
0.72
0.72
0.62
0.42
0.15
-0.16
-0.50
-0.85
-1.20
-1.52
-1.80
-1.95
-1.95
-1.79
-1.54
-1.30
-1.17
-1.17
-1.23
-1.21
-1.03
-0.69
-0.32
-0.05
-0.01
-0.18
-0.48
-0.83
-1.14
-1.40
-1.58
-1.67
-1.64
-1.49
-1.28
-1.12
-1.12
-1.31
-1.64
-1.95
-2.13
-2.11
-1.95
-1.76
-1.64
-1.60
-1.59
-1.50
-1.25
-0.87
-0.47
-0.20
-0.15
-0.30
-0.50
-0.61
-0.52
-0.27
0.04
0.29
0.43
0.49
0.54
0.59
0.60
0.53
0.33
0.01
-0.35
-0.64
-0.76
-0.67
-0.40
0.00
0.43
0.78
0.95
0.91
0.70
0.43
0.24
0.22
0.39
0.67
0.97
1.20
1.30
1.27
1.12
0.87
0.55
0.21
-0.07
-0.26
-0.36
-0.44
-0.59
-0.86
-1.22
-1.58
-1.81
-1.86
-1.71
-1.46
-1.17
-0.90
-0.64
-0.37
-0.07
0.23
0.48
0.63
0.63
0.51
0.35
0.27
0.33
0.51
0.70
0.75
0.58
0.18
-0.30
-0.69
-0.83
-0.64
-0.18
0.42
0.99
1.40
1.57
1.54
1.41
1.32
1.38
1.61
1.92
2.14
2.11
1.77
1.16
0.45
-0.19
-0.61
-0.79
-0.75
-0.56
-0.25
0.17
0.69
1.24
1.70
1.98
2.02
1.89
1.71
1.56
1.48
1.41
1.28
1.07
0.86
0.73
0.71
0.73
0.66
0.38
-0.07
-0.58
-0.96
-1.11
-1.05
-0.87
-0.69
-0.56
-0.47
-0.40
-0.36
-0.41
-0.60
-0.92
-1.24
-1.44
-1.43
-1.23
-0.98
-0.83
-0.90
-1.17
-1.52
-1.79
-1.90
-1.81
-1.59
-1.34
-1.17
-1.13
-1.20
-1.30
-1.34
-1.26
-1.04
-0.75
-0.47
-0.27
-0.13
-0.02
0.12
0.28
0.41
0.44
0.34
0.20
0.14
0.28
0.64
1.11
1.52
1.71
1.65
1.38
1.00
0.61
0.23
-0.13
-0.46
-0.71
-0.80
-0.66
-0.33
0.09
0.44
0.58
0.48
0.19
-0.14
-0.38
-0.45
-0.37
-0.24
-0.20
-0.29
-0.49
-0.69
-0.79
-0.75
-0.66
-0.61
-0.67
-0.79
-0.86
-0.77
-0.50
-0.14
0.17
0.31
0.25
0.06
-0.18
-0.37
-0.49
-0.56
-0.59
-0.60
-0.56
-0.48
-0.34
-0.15
0.06
0.26
0.42
0.51
0.51
0.46
0.37
0.28
0.24
0.23
0.25
0.29
0.31
0.30
0.25
0.17
0.10
0.04
0.03
0.08
0.24
0.51
0.89
1.33
1.70
1.85
1.71
1.29
0.76
0.34
0.17
0.28
0.55
0.80
0.92
0.88
0.73
0.53
0.31
0.04
-0.29
-0.62
-0.82
-0.76
-0.40
0.18
0.78
1.22
1.38
1.26
0.98
0.66
0.41
0.28
0.24
0.22
0.17
0.05
-0.16
-0.43
-0.71
-0.97
-1.18
-1.34
-1.49
-1.63
-1.72
-1.71
-1.56
-1.26
-0.86
-0.44
-0.10
0.11
0.17
0.11
-0.00
-0.11
-0.20
-0.24
-0.25
-0.24
-0.22
-0.22
-0.21
-0.22
-0.24
-0.24
-0.20
-0.09
0.10
0.34
0.57
0.72
0.76
0.70
0.61
0.55
0.55
0.58
0.59
0.52
0.35
0.12
-0.10
-0.23
-0.21
-0.03
0.28
0.64
0.93
1.02
0.82
0.36
-0.28
-0.90
-1.35
-1.51
-1.42
-1.19
-0.98
-0.87
-0.87
-0.88
-0.82
-0.66
-0.46
-0.29
-0.21
-0.20
-0.20
-0.12
0.06
0.31
0.52
0.64
0.61
0.45
0.22
-0.03
-0.27
-0.47
-0.64
-0.78
-0.87
-0.87
-0.75
-0.52
-0.22
0.07
0.25
0.24
0.03
-0.31
-0.66
-0.90
-0.95
-0.81
-0.54
-0.25
-0.00
0.19
0.36
0.57
0.84
1.12
1.30
1.28
1.04
0.70
0.39
0.25
0.32
0.53
0.78
0.99
1.14
1.27
1.39
1.50
1.53
1.44
1.19
0.85
0.51
0.26
0.16
0.19
0.30
0.41
0.46
0.43
0.33
0.21
0.10
0.03
-0.00
0.02
0.10
0.23
0.40
0.54
0.59
0.50
0.26
-0.10
-0.48
-0.80
-1.04
-1.17
-1.22
-1.22
-1.18
-1.13
-1.09
-1.11
-1.23
-1.48
-1.83
-2.20
-2.51
-2.72
-2.78
-2.70
-2.50
-2.21
-1.83
-1.41
-0.94
-0.42
0.22
1.06
2.13
3.38
4.65
5.72
6.35
6.47
6.09
5.30
4.20
2.81
1.07
-1.01
-3.33
-5.66
-7.70
-9.19
-10.02
-10.23
-9.97
-9.37
-8.52
-7.46
-6.23
-4.89
-3.56
-2.34
-1.33
-0.54
0.03
0.39
0.54
0.52
0.38
0.25
0.25
0.43
0.78
1.15
1.42
1.49
1.39
1.23
1.16
1.24
1.47
1.75
1.95
2.00
1.86
1.59
1.30
1.09
1.02
1.11
1.31
1.52
1.69
1.76
1.76
1.69
1.62
1.57
1.59
1.68
1.86
2.09
2.31
2.44
2.42
2.25
1.98
1.71
1.51
1.43
1.44
1.45
1.39
1.18
0.84
0.45
0.11
-0.08
-0.07
0.09
0.30
0.45
0.50
0.47
0.44
0.50
0.66
0.83
0.90
0.81
0.53
0.18
-0.13
-0.26
-0.21
-0.01
0.23
0.40
0.45
0.36
0.18
-0.02
-0.18
-0.26
-0.22
-0.09
0.11
0.29
0.42
0.45
0.39
0.29
0.20
0.17
0.25
0.42
0.67
0.90
1.01
0.90
0.54
0.01
-0.53
-0.89
-0.94
-0.70
-0.31
-0.01
0.06
-0.08
-0.30
-0.43
-0.38
-0.18
0.01
0.08
-0.01
-0.21
-0.44
-0.63
-0.77
-0.86
-0.88
-0.78
-0.55
-0.19
0.19
0.46
0.52
0.37
0.13
-0.03
-0.01
0.23
0.55
0.81
0.86
0.70
0.42
0.16
0.03
0.02
0.05
0.00
-0.15
-0.34
-0.43
-0.32
0.02
0.48
0.93
1.23
1.34
1.27
1.08
0.81
0.51
0.22
-0.05
-0.26
-0.42
-0.54
-0.69
-0.93
-1.26
-1.62
-1.91
-2.02
-1.87
-1.52
-1.04
-0.54
-0.12
0.23
0.53
0.75
0.85
0.77
0.49
0.08
-0.29
-0.41
-0.19
0.33
0.96
1.46
1.68
1.60
1.34
1.05
0.86
0.79
0.79
0.82
0.83
0.80
0.75
0.70
0.67
0.67
0.72
0.78
0.79
0.68
0.41
0.01
-0.42
-0.76
-0.92
-0.92
-0.82
-0.70
-0.56
-0.40
-0.19
0.00
0.05
-0.19
-0.78
-1.60
-2.40
-2.89
-2.88
-2.40
-1.67
-0.97
-0.51
-0.35
-0.38
-0.43
-0.39
-0.23
-0.01
0.21
0.41
0.58
0.74
0.84
0.82
0.67
0.44
0.27
0.30
0.61
1.14
1.74
2.22
2.45
2.38
2.07
1.61
1.12
0.70
0.45
0.38
0.46
0.59
0.64
0.56
0.36
0.09
-0.14
-0.31
-0.48
-0.68
-0.95
-1.24
-1.45
-1.51
-1.44
-1.35
-1.38
-1.61
-2.00
-2.41
-2.68
-2.70
-2.49
-2.15
-1.84
-1.67
-1.66
-1.72
-1.72
-1.54
-1.16
-0.67
-0.20
0.11
0.20
0.09
-0.12
-0.31
-0.37
-0.25
0.05
0.49
0.97
1.42
1.74
1.88
1.79
1.49
1.03
0.49
-0.02
-0.42
-0.63
-0.66
-0.55
-0.36
-0.13
0.15
0.51
0.95
1.36
1.61
1.54
1.10
0.41
-0.33
-0.88
-1.15
-1.16
-1.04
-0.93
-0.92
-0.98
-1.04
-1.04
-0.95
-0.81
-0.66
-0.54
-0.42
-0.24
0.03
0.40
0.82
1.19
1.40
1.42
1.26
1.04
0.87
0.84
0.97
1.22
1.54
1.87
2.16
2.37
2.49
2.51
2.45
2.31
2.11
1.81
1.40
0.92
0.43
0.06
-0.12
-0.09
0.07
0.25
0.33
0.29
0.16
-0.02
-0.21
-0.43
-0.70
-1.02
-1.35
-1.63
-1.80
-1.85
-1.80
-1.76
-1.75
-1.78
-1.76
-1.54
-1.06
-0.31
0.54
1.31
1.77
1.86
1.63
1.27
0.99
0.96
1.21
1.66
2.19
2.64
2.90
2.92
2.69
2.28
1.76
1.27
0.88
0.65
0.58
0.59
0.57
0.43
0.12
-0.29
-0.68
-0.94
-1.01
-0.91
-0.76
-0.62
-0.53
-0.47
-0.37
-0.22
-0.06
0.07
0.17
0.26
0.40
0.62
0.86
0.99
0.90
0.53
-0.02
-0.60
-1.05
-1.30
-1.37
-1.33
-1.27
-1.23
-1.15
-1.01
-0.78
-0.52
-0.34
-0.29
-0.39
-0.55
-0.67
-0.68
-0.55
-0.33
-0.11
0.03
0.02
-0.11
-0.30
-0.45
-0.47
-0.29
0.06
0.45
0.75
0.84
0.71
0.45
0.22
0.12
0.18
0.34
0.46
0.49
0.43
0.33
0.22
0.13
0.01
-0.13
-0.30
-0.42
-0.44
-0.35
-0.18
-0.01
0.09
0.07
-0.06
-0.27
-0.51
-0.69
-0.78
-0.72
-0.54
-0.31
-0.08
0.11
0.28
0.42
0.52
0.51
0.31
-0.08
-0.61
-1.15
-1.56
-1.74
-1.63
-1.27
-0.74
-0.15
0.34
0.61
0.58
0.30
-0.10
-0.43
-0.52
-0.33
0.05
0.46
0.75
0.85
0.82
0.77
0.77
0.83
0.88
0.82
0.57
0.14
-0.37
-0.84
-1.16
-1.31
-1.35
-1.37
-1.43
-1.56
-1.72
-1.83
-1.85
-1.76
-1.58
-1.35
-1.08
-0.79
-0.50
-0.22
0.05
0.28
0.47
0.62
0.73
0.79
0.77
0.66
0.49
0.30
0.18
0.20
0.38
0.70
1.06
1.32
1.35
1.06
0.48
-0.29
-1.06
-1.62
-1.82
-1.65
-1.21
-0.70
-0.31
-0.10
-0.06
-0.07
0.00
0.20
0.49
0.78
0.96
1.00
0.94
0.85
0.80
0.78
0.73
0.59
0.35
0.05
-0.27
-0.54
-0.75
-0.89
-0.95
-0.88
-0.67
-0.38
-0.10
0.04
-0.00
-0.16
-0.31
-0.33
-0.19
0.03
0.22
0.27
0.15
-0.08
-0.37
-0.66
-0.91
-1.06
-1.04
-0.83
-0.43
0.06
0.51
0.80
0.87
0.75
0.50
0.22
-0.02
-0.18
-0.26
-0.29
-0.30
-0.29
-0.23
-0.08
0.14
0.41
0.65
0.79
0.83
0.80
0.77
0.78
0.79
0.72
0.53
0.25
-0.07
-0.31
-0.44
-0.46
-0.42
-0.34
-0.25
-0.15
-0.10
-0.14
-0.30
-0.56
-0.81
-0.95
-0.90
-0.67
-0.31
0.04
0.30
0.40
0.33
0.14
-0.10
-0.29
-0.31
-0.14
0.18
0.52
0.71
0.62
0.26
-0.26
-0.72
-0.96
-0.90
-0.62
-0.27
-0.01
0.09
0.04
-0.09
-0.23
-0.32
-0.38
-0.42
-0.44
-0.46
-0.46
-0.41
-0.29
-0.09
0.21
0.56
0.88
1.08
1.09
0.95
0.76
0.65
0.69
0.81
0.88
0.78
0.50
0.15
-0.10
-0.13
0.05
0.27
0.40
0.36
0.27
0.29
0.51
0.92
1.33
1.54
1.46
1.14
0.76
0.51
0.44
0.52
0.62
0.65
0.59
0.46
0.33
0.24
0.19
0.19
0.26
0.40
0.60
0.82
0.99
1.05
0.99
0.85
0.71
0.61
0.56
0.50
0.38
0.18
-0.08
-0.32
-0.49
-0.58
-0.63
-0.69
-0.75
-0.78
-0.76
-0.71
-0.69
-0.78
-1.02
-1.34
-1.63
-1.77
-1.74
-1.63
-1.55
-1.58
-1.66
-1.66
-1.48
-1.14
-0.75
-0.45
-0.29
-0.27
-0.29
-0.30
-0.29
-0.30
-0.35
-0.43
-0.48
-0.48
-0.42
-0.38
-0.39
-0.46
-0.53
-0.55
-0.47
-0.31
-0.09
0.17
0.50
0.88
1.27
1.57
1.69
1.59
1.32
1.00
0.79
0.76
0.91
1.14
1.31
1.31
1.07
0.64
0.10
-0.46
-0.97
-1.41
-1.73
-1.91
-1.90
-1.66
-1.24
-0.74
-0.31
-0.06
0.02
-0.01
-0.02
0.06
0.23
0.39
0.46
0.44
0.38
0.37
0.42
0.51
0.53
0.41
0.17
-0.13
-0.36
-0.44
-0.38
-0.24
-0.11
-0.04
-0.02
-0.01
0.06
0.21
0.42
0.63
0.76
0.75
0.57
0.26
-0.09
-0.36
-0.47
-0.40
-0.23
-0.06
0.05
0.08
0.09
0.14
0.27
0.40
0.46
0.37
0.18
-0.02
-0.10
0.03
0.33
0.72
1.09
1.35
1.49
1.52
1.49
1.44
1.41
1.41
1.45
1.51
1.54
1.51
1.39
1.19
0.89
0.51
0.09
-0.31
-0.61
-0.77
-0.80
-0.79
-0.86
-1.13
-1.61
-2.20
-2.72
-3.02
-3.02
-2.78
-2.43
-2.06
-1.76
-1.49
-1.21
-0.91
-0.61
-0.40
-0.35
-0.47
-0.68
-0.86
-0.88
-0.70
-0.38
-0.08
0.06
-0.01
-0.23
-0.46
-0.57
-0.50
-0.29
-0.05
0.13
0.20
0.19
0.14
0.06
-0.05
-0.23
-0.49
-0.78
-1.01
-1.05
-0.82
-0.32
0.38
1.11
1.70
2.03
2.07
1.89
1.62
1.38
1.20
1.07
0.90
0.67
0.40
0.19
0.12
0.20
0.37
0.47
0.39
0.12
-0.25
-0.59
-0.78
-0.82
-0.75
-0.67
-0.62
-0.59
-0.57
-0.52
-0.44
-0.39
-0.40
-0.47
-0.55
-0.57
-0.48
-0.27
0.01
0.29
0.54
0.77
0.99
1.22
1.42
1.58
1.71
1.83
1.98
2.14
2.22
2.12
1.77
1.19
0.51
-0.10
-0.51
-0.68
-0.68
-0.60
-0.51
-0.43
-0.37
-0.31
-0.24
-0.19
-0.15
-0.08
0.02
0.15
0.28
0.37
0.38
0.32
0.26
0.24
0.28
0.37
0.46
0.53
0.60
0.70
0.87
1.09
1.31
1.45
1.47
1.35
1.14
0.90
0.69
0.54
0.47
0.46
0.47
0.46
0.41
0.33
0.25
0.18
0.10
-0.02
-0.25
-0.58
-0.97
-1.32
-1.57
-1.69
-1.70
-1.65
-1.55
-1.42
-1.25
-1.07
-0.90
-0.80
-0.78
-0.81
-0.83
-0.80
-0.69
-0.51
-0.32
-0.15
-0.03
0.06
0.10
0.11
0.08
-0.01
-0.12
-0.25
-0.35
-0.40
-0.39
-0.30
-0.19
-0.10
-0.07
-0.11
-0.19
-0.26
-0.31
-0.32
-0.32
-0.34
-0.39
-0.45
-0.47
-0.41
-0.27
-0.08
0.09
0.24
0.37
0.50
0.59
0.61
0.50
0.26
-0.09
-0.43
-0.69
-0.80
-0.77
-0.68
-0.59
-0.55
-0.58
-0.65
-0.73
-0.83
-0.96
-1.15
-1.38
-1.60
-1.74
-1.72
-1.49
-1.10
-0.65
-0.26
-0.07
-0.11
-0.33
-0.64
-0.93
-1.15
-1.27
-1.35
-1.42
-1.45
-1.41
-1.23
-0.91
-0.49
-0.07
0.26
0.47
0.55
0.59
0.63
0.71
0.82
0.91
0.97
0.98
0.95
0.85
0.67
0.39
0.05
-0.30
-0.57
-0.76
-0.88
-0.99
-1.16
-1.38
-1.61
-1.82
-2.01
-2.26
-2.67
-3.30
-4.14
-5.12
-6.14
-7.11
-7.95
-8.64
-9.16
-9.51
-9.73
-9.81
-9.72
-9.38
-8.64
-7.43
-5.74
-3.70
-1.47
0.86
3.31
6.06
9.27
13.03
17.19
21.50
25.60
29.21
32.20
34.50
36.05
36.75
36.45
35.06
32.72
29.76
26.68
23.99
22.01
20.76
20.04
19.63
19.47
19.84
21.30
24.46
29.70
36.90
45.46
54.44
63.00
70.72
77.80
85.06
93.58
104.32
117.60
132.95
149.15
164.70
178.38
189.76
199.50
209.10
220.18
233.35
247.43
258.98
263.01
254.34
229.30
187.04
129.72
61.88
-11.09
-84.48
-155.33
-222.74
-287.75
-352.70
-420.05
-490.78
-562.72
-629.91
-683.54
-714.59
-717.05
-690.19
-638.76
-570.83
-494.58
-415.68
-336.50
-257.06
-176.76
-96.00
-16.67
58.07
124.73
180.27
222.79
251.83
268.31
274.45
273.07
267.03
258.73
249.98
242.10
236.12
232.64
231.34
231.20
230.68
228.39
223.52
216.11
206.92
197.12
187.86
179.31
170.91
161.21
148.25
129.85
104.12
70.05
27.84
-21.42
-77.05
-138.48
-204.65
-272.46
-335.77
-385.74
-413.06
-411.22
-375.49
-309.05
-221.62
-126.06
-33.83
47.51
114.20
164.30
196.17
208.64
201.87
179.82
148.69
115.50
86.19
64.29
50.78
44.60
43.95
46.47
50.22
53.73
56.61
58.92
61.02
63.25
65.72
68.50
71.13
72.82
72.14
67.10
55.26
34.25
3.16
-36.70
-81.43
-125.43
-162.87
-189.53
-203.49
-205.10
-196.42
-180.21
-159.46
-137.17
-116.20
-98.75
-85.94
-77.19
-70.76
-64.56
-57.02
-47.58
-36.70
-25.62
-16.24
-10.83
-11.62
-18.33
-28.14
-35.71
-34.53
-19.49
10.61
52.24
96.56
133.64
156.57
163.55
157.68
144.70
130.00
116.88
106.35
97.84
90.50
83.88
77.66
71.56
65.99
61.06
57.21
55.55
57.59
64.86
77.94
95.29
112.02
121.58
117.46
96.07
58.78
11.76
-36.16
-76.87
-105.98
-123.40
-131.87
-134.71
-133.94
-129.94
-122.59
-112.53
-101.56
-92.21
-86.68
-85.94
-89.41
-94.37
-96.69
-91.07
-73.36
-42.47
-1.51
42.78
82.41
110.43
124.32
126.27
121.30
114.15
107.29
100.72
93.44
85.21
77.22
71.84
70.71
73.86
79.50
85.01
87.81
86.41
80.40
69.87
55.53
37.08
13.86
-14.57
-47.52
-82.78
-116.58
-143.90
-160.76
-165.04
-157.10
-139.14
-114.45
-86.48
-58.42
-33.18
-13.65
-2.17
0.42
-4.69
-14.39
-25.14
-34.61
-42.39
-49.55
-56.89
-63.27
-64.94
-57.28
-37.48
-6.60
29.48
63.01
87.81
101.68
106.62
107.03
106.73
107.32
107.68
105.98
101.61
95.93
91.61
91.31
96.26
105.37
115.23
120.59
116.12
97.93
65.36
21.86
-25.48
-68.09
-99.03
-114.56
-115.83
-107.08
-93.20
-77.59
-61.74
-46.43
-32.04
-20.04
-12.52
-11.11
-15.44
-23.23
-31.08
-36.02
-36.59
-33.34
-28.53
-24.77
-24.08
-26.63
-31.09
-35.33
-37.70
-37.81
-36.82
-37.06
-40.92
-49.82
-63.32
-79.66
-95.80
-110.00
-121.77
-131.79
-141.54
-152.54
-166.89
-184.74
-205.28
-226.36
-243.94
-252.22
-244.91
-217.99
-171.85
-112.17
-47.93
11.34
58.90
92.59
114.33
128.16
137.25
142.89
144.71
142.59
137.20
129.97
122.19
114.25
105.93
96.20
84.19
69.83
54.81
41.69
32.93
29.85
30.01
31.85
33.47
35.68
38.01
40.65
44.16
48.87
54.37
59.44
63.15
64.53
63.50
60.72
58.25
58.90
65.68
81.10
103.74
131.69
161.06
186.95
204.29
210.09
204.31
189.74
170.68
151.07
133.72
119.19
106.82
95.37
84.27
73.77
64.57
57.36
52.37
49.69
47.00
42.56
35.01
23.87
9.58
-6.69
-23.56
-40.03
-55.50
-69.77
-82.26
-92.18
-98.59
-100.89
-99.34
-95.13
-90.14
-86.10
-84.17
-84.47
-86.39
-88.91
-90.72
-90.78
-87.84
-81.00
-70.05
-55.80
-39.73
-23.56
-8.84
3.65
13.96
22.55
29.50
33.99
34.31
28.55
15.89
-2.94
-25.32
-47.27
-64.63
-74.60
-76.66
-72.46
-64.90
-56.57
-48.87
-41.57
-33.34
-22.87
-9.88
4.40
17.63
26.42
29.03
25.34
16.97
6.53
-3.56
-11.95
-18.99
-26.13
-35.27
-47.65
-63.68
-83.10
-104.96
-127.05
-145.11
-152.90
-143.99
-115.29
-69.84
-17.47
28.26
55.26
57.70
38.47
6.77
-25.42
-48.73
-59.72
-60.49
-55.52
-48.17
-39.38
-28.55
-15.51
-1.46
11.18
19.95
23.66
22.74
19.09
14.93
12.04
11.15
12.06
13.60
14.48
13.93
11.84
8.96
6.18
3.79
0.94
-3.83
-11.30
-20.01
-25.59
-22.88
-7.68
20.34
56.64
93.27
121.97
137.38
137.45
125.76
108.06
89.50
72.99
59.45
48.86
41.11
36.22
34.02
33.85
34.40
34.39
32.88
29.98
26.98
25.84
28.03
33.18
38.52
38.86
28.68
4.96
-31.44
-75.08
-117.56
-150.77
-170.05
-175.14
-169.77
-159.39
-148.80
-140.62
-135.19
-131.34
-127.64
-122.71
-114.97
-102.48
-83.31
-56.38
-22.50
15.15
51.77
82.10
102.31
111.42
111.20
105.15
96.89
88.94
82.47
77.93
75.16
74.05
74.49
75.98
77.59
78.30
77.10
72.17
64.24
54.95
46.09
38.87
33.42
28.82
23.69
16.87
8.50
0.16
-6.03
-8.23
-5.64
0.93
9.33
17.67
24.12
28.63
32.84
38.96
48.96
64.02
84.32
109.01
135.86
159.63
174.50
174.57
155.76
118.19
67.24
12.01
-37.91
-75.97
-100.25
-112.46
-116.13
-114.66
-110.62
-104.82
-98.03
-91.70
-87.85
-87.96
-92.29
-99.94
-108.72
-114.61
-112.11
-95.38
-59.27
-4.57
62.53
132.66
197.38
252.37
296.50
329.83
351.15
356.74
342.24
306.41
253.29
191.96
132.85
83.95
48.26
23.97
6.32
-9.28
-24.69
-39.71
-53.26
-65.71
-78.64
-94.23
-110.98
-127.57
-142.47
-153.94
-162.12
-168.64
-177.42
-192.07
-214.30
-243.02
-275.24
-306.99
-334.34
-356.32
-374.31
-392.80
-416.67
-449.92
-494.31
-548.88
-609.26
-666.95
-712.95
-728.22
-701.07
-630.90
-529.59
-416.36
-309.34
-225.24
-162.75
-115.58
-78.03
-48.24
-25.83
-10.31
0.19
9.66
22.27
41.51
67.01
95.37
121.76
142.80
157.43
167.31
176.83
190.11
210.11
236.25
264.15
289.32
309.10
322.72
331.86
341.07
354.32
374.22
400.44
428.09
453.38
474.81
492.22
507.34
524.42
546.42
574.53
607.42
638.69
664.25
683.10
695.69
687.51
650.15
580.80
483.78
390.50
312.49
251.94
207.45
168.06
128.41
88.92
52.14
21.13
-2.14
-21.20
-44.22
-75.04
-114.68
-160.21
-205.42
-244.43
-273.45
-291.49
-302.50
-309.32
-312.70
-312.98
-309.63
-301.69
-288.89
-271.64
-250.86
-229.62
-210.02
-192.88
-178.91
-167.90
-158.55
-148.88
-136.95
-121.52
-103.55
-84.60
-66.26
-50.00
-36.41
-25.22
-15.58
-6.80
1.55
9.29
16.42
23.22
30.16
37.53
44.73
50.47
52.20
47.38
34.69
15.01
-8.55
-31.43
-49.25
-60.63
-65.29
-65.14
-63.08
-61.72
-62.44
-65.46
-69.84
-74.19
-77.41
-78.81
-79.24
-80.12
-82.83
-87.96
-95.40
-103.89
-111.83
-117.98
-122.02
-125.85
-132.34
-144.90
-164.02
-190.89
-226.20
-269.39
-317.61
-360.35
-385.88
-383.70
-349.39
-287.28
-209.63
-131.47
-64.94
-16.00
15.75
33.69
42.01
43.51
39.68
32.40
23.68
16.14
12.08
12.61
16.66
22.49
28.11
32.61
36.37
40.88
48.25
60.30
78.11
99.34
121.93
144.13
165.18
185.58
206.82
230.69
257.96
287.32
314.97
335.96
345.50
340.99
322.96
294.80
261.40
227.30
195.37
166.59
140.93
118.02
97.70
80.01
64.79
51.44
39.05
26.74
14.15
1.68
-9.85
-19.52
-26.73
-31.43
-34.03
-35.24
-35.78
-36.21
-36.73
-37.31
-37.80
-38.05
-38.05
-37.97
-38.10
-38.78
-40.23
-42.47
-45.25
-48.15
-50.72
-52.53
-53.36
-53.13
-51.93
-49.96
-47.44
-44.63
-41.76
-39.02
-36.48
-34.13
-31.86
-29.57
-27.22
-24.89
-22.74
-20.91
-19.40
-18.15
-17.06
-16.10
-15.28
-14.66
-14.16
-13.63
-12.86
-11.73
-10.31
-8.86
-7.74
-7.19
-7.30
-7.91
-8.81
-9.77
-10.68
-11.50
-12.23
-12.88
-13.42
-13.81
-13.97
-13.84
-13.42
-12.71
-11.74
-10.49
-8.96
-7.17
-5.18
-3.17
-1.36
0.03
0.89
1.26
1.37
1.46
1.72
2.18
2.70
3.07
3.18
3.10
3.03
3.32
4.13
5.42
6.86
7.98
8.39
8.00
7.10
6.29
6.24
7.38
9.76
12.94
16.28
19.11
21.12
22.40
23.43
24.85
27.11
30.18
33.49
36.13
37.20
36.33
33.71
30.09
26.39
23.17
20.52
18.13
15.57
12.41
8.04
1.65
-8.12
-21.72
-37.93
-53.48
-64.05
-66.29
-59.75
-47.25
-33.46
-22.35
-15.47
-11.87
-9.34
-6.30
-2.67
0.32
1.38
0.20
-2.26
-4.28
-4.54
-2.67
0.44
3.24
4.40
3.64
1.33
-1.60
-4.12
-5.61
-6.07
-6.03
-6.21
-7.20
-9.15
-11.88
-14.87
-17.62
-19.88
-21.69
-23.32
-25.02
-26.82
-28.48
-29.65
-29.84
-28.89
-26.97
-24.35
-21.22
-17.60
-13.32
-8.34
-2.99
2.04
5.95
8.11
8.33
6.94
4.64
1.97
-0.33
-1.60
-1.31
0.72
4.37
9.19
14.51
19.60
23.90
27.13
29.24
30.16
29.71
27.60
23.66
18.10
11.65
5.44
0.65
-1.93
-2.15
-0.55
1.98
4.60
6.75
8.25
9.17
9.65
9.74
9.46
8.78
7.74
6.45
5.05
3.68
2.37
1.11
-0.14
-1.42
-2.73
-4.12
-5.55
-6.89
-7.92
-8.36
-8.05
-6.83
-4.64
-1.50
2.43
6.93
11.67
16.30
20.44
23.67
25.92
27.47
28.67
29.21
28.58
26.13
21.50
14.68
5.76
-4.51
-14.87
-23.87
-30.54
-34.99
-39.22
-46.14
-59.13
-81.54
-114.87
-157.86
-206.07
-252.31
-288.11
-305.88
-301.00
-270.19
-216.27
-146.22
-69.39
4.81
68.67
117.19
148.39
163.18
164.74
157.26
145.76
134.62
126.67
122.76
121.99
122.59
122.66
120.82
116.21
109.30
101.43
94.34
89.48
87.30
87.20
87.74
87.31
84.76
80.41
75.64
72.20
71.34
73.14
76.40
79.04
78.99
72.76
59.23
39.73
17.56
-2.96
-18.48
-27.90
-32.55
-35.76
-41.78
-54.21
-75.00
-103.29
-134.53
-161.07
-174.20
-167.53
-140.03
-97.05
-48.27
-4.20
27.75
45.29
50.49
47.29
38.99
27.19
12.60
-3.48
-18.51
-29.66
-34.90
-34.13
-29.30
-23.28
-18.69
-16.61
-16.50
-16.76
-15.68
-12.22
-6.52
0.24
6.42
10.52
11.90
10.89
8.61
6.46
5.50
6.01
7.48
8.89
9.24
8.05
5.51
2.32
-0.65
-2.71
-3.62
-3.59
-3.01
-2.32
-1.72
-1.21
-0.73
-0.18
0.42
0.98
1.38
1.53
1.45
1.27
1.14
1.21
1.48
1.82
2.01
1.92
1.57
1.27
1.41
2.30
4.00
6.25
8.59
10.54
11.80
12.29
12.17
11.62
10.84
9.98
9.13
8.36
7.74
7.28
6.89
6.42
5.71
4.62
3.11
1.30
-0.56
-2.10
-2.97
-2.91
-1.83
0.17
2.70
5.16
6.81
6.95
5.18
1.52
-3.51
-9.04
-14.29
-18.84
-22.87
-27.02
-31.95
-37.92
-44.40
-50.23
-53.91
-54.30
-51.09
-44.93
-37.20
-29.55
-23.43
-19.72
-18.40
-18.52
-18.20
-15.12
-7.34
5.91
23.62
43.27
61.69
76.30
85.95
90.98
92.59
91.89
89.40
85.21
79.59
73.44
68.26
65.55
66.04
69.42
74.36
78.90
80.92
78.63
70.88
57.72
40.62
22.25
5.40
-8.51
-20.40
-33.43
-51.37
-76.52
-108.19
-142.69
-174.98
-200.82
-218.45
-228.67
-233.74
-235.73
-235.50
-232.82
-227.11
-218.19
-206.23
-191.09
-171.64
-145.91
-112.24
-70.71
-24.05
22.80
64.09
95.43
115.12
124.23
125.64
122.43
116.85
110.14
103.04
96.22
90.58
86.78
84.78
83.78
82.45
79.47
74.22
67.07
59.21
52.20
47.29
44.75
44.00
43.79
42.67
39.55
34.33
27.92
21.97
18.14
17.29
19.22
22.81
26.54
29.20
30.36
30.29
29.60
29.12
28.92
28.76
28.41
27.85
27.32
27.06
27.13
27.38
27.46
26.95
25.69
23.67
21.01
17.90
14.42
10.64
6.48
2.01
-2.71
-7.32
-11.38
-14.41
-16.15
-16.75
-16.81
-17.11
-18.34
-20.77
-24.01
-27.26
-29.77
-31.17
-31.69
-32.01
-32.97
-35.04
-38.36
-42.51
-46.80
-50.30
-52.02
-51.00
-46.63
-38.99
-29.15
-19.05
-10.91
-6.30
-5.50
-7.37
-10.03
-11.70
-11.66
-10.31
-8.70
-7.64
-7.25
-6.87
-5.72
-3.56
-0.85
1.52
2.80
2.94
2.63
2.83
4.23
6.92
10.33
13.63
16.03
17.16
17.04
16.01
14.50
12.91
11.47
10.14
8.74
7.04
4.95
2.64
0.48
-1.16
-2.10
-2.45
-2.56
-2.73
-3.06
-3.34
-3.23
-2.46
-0.97
1.02
3.18
5.16
6.82
8.25
9.75
11.61
13.98
16.75
19.46
21.53
22.43
22.03
20.68
19.16
18.30
18.73
20.54
23.23
25.87
27.36
26.80
23.75
18.37
11.07
2.34
-7.27
-17.10
-26.45
-34.44
-40.32
-43.70
-44.65
-43.68
-41.54
-38.98
-36.54
-34.53
-32.98
-31.79
-30.77
-29.64
-28.13
-25.93
-22.85
-18.83
-14.05
-8.94
-4.08
0.09
3.20
5.12
5.94
5.95
5.56
5.17
5.24
6.24
8.59
12.46
17.72
23.77
29.69
34.65
37.99
39.50
39.36
37.98
35.77
33.05
29.97
26.00
20.96
14.83
7.73
-0.05
-8.05
-15.62
-21.94
-26.17
-27.71
-26.27
-22.19
-16.27
-9.66
-3.45
1.54
4.92
6.85
7.88
8.83
10.45
13.16
16.86
21.29
25.75
29.42
31.66
32.11
30.64
27.31
22.30
16.01
8.87
2.09
-3.06
-5.69
-5.65
-3.54
-0.54
2.06
3.24
2.59
0.24
-3.34
-7.49
-11.46
-14.53
-16.16
-16.17
-14.81
-12.80
-10.95
-10.01
-10.35
-11.85
-14.12
-16.72
-19.34
-21.81
-24.22
-26.39
-28.12
-29.19
-29.47
-28.91
-27.53
-25.37
-22.35
-18.65
-14.49
-10.10
-5.69
-1.38
2.74
6.57
9.94
12.59
14.31
15.03
14.92
14.29
13.58
13.19
13.32
13.93
14.74
15.40
15.67
15.54
15.19
14.91
14.88
15.13
15.48
15.74
15.75
15.53
15.27
14.99
14.64
14.08
13.12
11.63
9.60
7.18
4.57
2.00
-0.41
-2.55
-4.41
-6.01
-7.38
-8.59
-9.71
-10.84
-11.97
-13.02
-13.77
-13.93
-13.34
-12.02
-10.24
-8.37
-6.73
-5.42
-4.30
-3.16
-1.77
-0.30
1.05
1.83
1.84
1.06
-0.31
-1.92
-3.46
-4.60
-4.96
-4.05
-1.41
3.07
8.85
14.70
19.06
20.67
19.20
15.40
10.75
6.66
3.86
2.10
0.56
-1.54
-4.51
-7.96
-11.27
-13.93
-15.90
-17.51
-19.07
-20.87
-22.55
-23.62
-23.55
-22.17
-19.65
-16.45
-13.08
-9.93
-7.11
-4.49
-1.85
0.93
3.81
6.56
8.84
10.38
11.06
11.03
10.65
10.30
10.25
10.54
11.00
11.33
11.25
10.66
9.62
8.36
7.08
5.93
4.98
4.21
3.57
3.01
2.44
1.78
0.97
0.03
-0.96
-1.90
-2.71
-3.34
-3.81
-4.10
-4.18
-4.04
-3.72
-3.33
-3.04
-2.99
-3.25
-3.75
-4.38
-5.03
-5.65
-6.22
-6.74
-7.13
-7.28
-7.09
-6.52
-5.70
-4.85
-4.20
-3.80
-3.53
-3.08
-2.15
-0.65
1.33
3.42
5.23
6.43
6.92
6.78
6.21
5.43
4.57
3.69
2.82
1.99
1.24
0.63
0.22
0.08
0.22
0.64
1.35
2.30
3.45
4.72
5.99
7.14
8.06
8.68
9.00
9.12
9.16
9.27
9.52
9.86
10.07
9.90
9.14
7.76
5.96
4.05
2.37
1.10
0.25
-0.30
-0.72
-1.09
-1.41
-1.67
-1.84
-1.95
-2.05
-2.19
-2.35
-2.53
-2.68
-2.82
-2.97
-3.13
-3.28
-3.33
-3.23
-2.97
-2.66
-2.47
-2.52
-2.87
-3.41
-3.92
-4.13
-3.90
-3.20
-2.19
-1.11
-0.17
0.53
1.06
1.55
2.22
3.17
4.44
5.91
7.38
8.61
9.38
9.57
9.18
8.33
7.28
6.33
5.72
5.58
5.83
6.19
6.26
5.69
4.34
2.38
0.24
-1.56
-2.55
-2.56
-1.66
-0.15
1.55
2.98
3.74
3.48
2.06
-0.48
-3.81
-7.47
-10.92
-13.77
-15.82
-17.05
-17.60
-17.65
-17.36
-16.89
-16.36
-15.82
-15.32
-14.81
-14.24
-13.53
-12.65
-11.58
-10.38
-9.09
-7.76
-6.44
-5.13
-3.86
-2.68
-1.69
-1.05
-0.85
-1.08
-1.58
-2.10
-2.40
-2.34
-1.97
-1.40
-0.76
-0.11
0.54
1.21
1.92
2.64
3.34
3.99
4.54
4.94
5.14
5.14
4.95
4.69
4.47
4.35
4.29
4.19
3.95
3.56
3.11
2.74
2.51
2.43
2.39
2.28
2.06
1.75
1.41
1.10
0.81
0.53
0.26
0.04
-0.09
-0.11
-0.06
-0.03
-0.09
-0.24
-0.40
-0.50
-0.45
-0.29
-0.06
0.18
0.42
0.68
0.94
1.19
1.33
1.32
1.16
0.92
0.76
0.81
1.13
1.64
2.21
2.67
2.94
3.05
3.09
3.20
3.44
3.78
4.13
4.37
4.42
4.28
3.98
3.58
3.11
2.63
2.17
1.78
1.50
1.35
1.31
1.36
1.44
1.53
1.59
1.60
1.58
1.52
1.44
1.36
1.25
1.09
0.84
0.50
0.11
-0.26
-0.50
-0.61
-0.60
-0.54
-0.50
-0.51
-0.54
-0.56
-0.54
-0.52
-0.55
-0.70
-0.95
-1.22
-1.40
-1.40
-1.21
-0.89
-0.57
-0.32
-0.19
-0.16
-0.22
-0.31
-0.42
-0.53
-0.58
-0.54
-0.39
-0.19
-0.01
0.06
0.00
-0.12
-0.19
-0.12
0.14
0.53
0.93
1.26
1.44
1.48
1.44
1.39
1.39
1.51
1.77
2.12
2.50
2.82
2.98
2.98
2.84
2.68
2.60
2.68
2.94
3.38
3.93
4.56
5.21
5.79
6.21
6.40
6.33
6.09
5.83
5.69
5.77
6.03
6.30
6.40
6.16
5.56
4.64
3.54
2.41
1.37
0.52
-0.09
-0.46
-0.65
-0.76
-0.95
-1.30
-1.82
-2.44
-3.02
-3.44
-3.68
-3.76
-3.79
-3.85
-4.01
-4.25
-4.53
-4.79
-4.98
-5.08
-5.08
-5.03
-4.96
-4.93
-4.94
-4.97
-5.00
-5.02
-5.00
-4.99
-4.96
-4.91
-4.79
-4.52
-4.08
-3.48
-2.81
-2.16
-1.62
-1.24
-1.02
-0.92
-0.92
-0.95
-0.97
-0.91
-0.75
-0.52
-0.30
-0.15
-0.12
-0.20
-0.32
-0.42
-0.46
-0.45
-0.41
-0.38
-0.37
-0.37
-0.38
-0.45
-0.59
-0.83
-1.11
-1.34
-1.42
-1.26
-0.93
-0.52
-0.21
-0.12
-0.27
-0.56
-0.84
-0.95
-0.82
-0.49
-0.10
0.21
0.35
0.33
0.25
0.20
0.26
0.44
0.68
0.88
0.99
0.94
0.72
0.38
-0.02
-0.41
-0.73
-0.93
-1.03
-1.04
-0.99
-0.90
-0.77
-0.60
-0.40
-0.20
-0.02
0.11
0.19
0.21
0.19
0.15
0.07
-0.06
-0.25
-0.50
-0.78
-1.03
-1.15
-1.06
-0.74
-0.27
0.22
0.60
0.78
0.78
0.66
0.48
0.29
0.09
-0.13
-0.36
-0.58
-0.75
-0.83
-0.83
-0.79
-0.73
-0.67
-0.58
-0.43
-0.22
0.00
0.20
0.35
0.46
0.58
0.74
0.94
1.09
1.09
0.92
0.61
0.32
0.19
0.30
0.62
0.98
1.20
1.15
0.84
0.37
-0.10
-0.41
-0.50
-0.36
-0.06
0.28
0.58
0.78
0.85
0.84
0.78
0.74
0.73
0.73
0.70
0.58
0.38
0.15
-0.07
-0.24
-0.35
-0.43
-0.50
-0.54
-0.52
-0.42
-0.23
-0.01
0.17
0.25
0.22
0.09
-0.13
-0.39
-0.64
-0.83
-0.89
-0.76
-0.46
-0.04
0.40
0.73
0.88
0.84
0.61
0.29
-0.04
-0.32
-0.49
-0.53
-0.47
-0.33
-0.17
-0.02
0.11
0.20
0.21
0.14
-0.03
-0.28
-0.54
-0.76
-0.91
-0.99
-1.03
-1.05
-1.00
-0.83
-0.51
-0.08
0.35
0.63
0.67
0.48
0.21
0.00
-0.04
0.04
0.14
0.13
0.01
-0.16
-0.26
-0.26
-0.17
-0.11
-0.17
-0.36
-0.64
-0.87
-0.97
-0.87
-0.60
-0.26
0.02
0.12
-0.03
-0.38
-0.81
-1.17
-1.30
-1.15
-0.78
-0.32
0.11
0.46
0.70
0.83
0.85
0.76
0.57
0.35
0.20
0.20
0.34
0.54
0.68
0.69
0.55
0.34
0.12
-0.04
-0.16
-0.27
-0.36
-0.43
-0.47
-0.47
-0.46
-0.50
-0.60
-0.77
-0.92
-0.97
-0.85
-0.52
-0.01
0.61
1.22
1.70
1.97
2.01
1.85
1.58
1.26
0.93
0.56
0.17
-0.21
-0.50
-0.61
-0.50
-0.26
-0.01
0.13
0.10
-0.05
-0.20
-0.27
-0.24
-0.19
-0.24
-0.46
-0.80
-1.16
-1.39
-1.41
-1.23
-0.96
-0.72
-0.61
-0.67
-0.82
-1.03
-1.19
-1.31
-1.34
-1.30
-1.15
-0.88
-0.47
0.03
0.56
1.01
1.31
1.45
1.45
1.35
1.20
1.00
0.75
0.47
0.22
0.11
0.24
0.64
1.19
1.69
1.91
1.74
1.23
0.60
0.10
-0.13
-0.08
0.10
0.23
0.20
0.01
-0.26
-0.54
-0.78
-0.98
-1.12
-1.15
-0.98
-0.56
0.04
0.72
1.29
1.61
1.59
1.24
0.68
0.06
-0.46
-0.75
-0.77
-0.58
-0.27
0.01
0.19
0.24
0.18
0.05
-0.11
-0.26
-0.37
-0.41
-0.36
-0.24
-0.08
0.05
0.10
0.03
-0.15
-0.38
-0.58
-0.66
-0.57
-0.29
0.12
0.54
0.83
0.93
0.84
0.67
0.56
0.55
0.62
0.68
0.61
0.39
0.07
-0.21
-0.35
-0.34
-0.24
-0.14
-0.13
-0.21
-0.33
-0.41
-0.44
-0.42
-0.37
-0.28
-0.15
-0.01
0.07
0.02
-0.22
-0.60
-1.01
-1.25
-1.21
-0.85
-0.29
0.30
0.77
1.00
1.00
0.82
0.54
0.23
-0.03
-0.22
-0.30
-0.26
-0.14
-0.03
-0.00
-0.12
-0.36
-0.60
-0.70
-0.55
-0.16
0.32
0.72
0.90
0.84
0.60
0.31
0.09
-0.02
-0.03
0.03
0.11
0.22
0.33
0.43
0.49
0.46
0.35
0.18
0.01
-0.09
-0.07
0.09
0.33
0.57
0.69
0.60
0.29
-0.22
-0.79
-1.30
-1.60
-1.63
-1.38
-0.92
-0.38
0.10
0.40
0.45
0.25
-0.11
-0.48
-0.74
-0.79
-0.66
-0.42
-0.20
-0.06
-0.01
-0.02
-0.03
-0.01
0.05
0.12
0.21
0.33
0.52
0.77
1.06
1.28
1.35
1.22
0.90
0.48
0.06
-0.28
-0.50
-0.60
-0.61
-0.58
-0.56
-0.59
-0.66
-0.74
-0.79
-0.76
-0.64
-0.45
-0.25
-0.11
-0.05
-0.06
-0.08
-0.06
0.05
0.22
0.43
0.60
0.73
0.77
0.76
0.68
0.55
0.38
0.20
0.04
-0.03
0.02
0.20
0.47
0.73
0.88
0.83
0.58
0.18
-0.24
-0.56
-0.70
-0.67
-0.51
-0.31
-0.13
-0.02
0.04
0.04
0.03
-0.02
-0.08
-0.15
-0.23
-0.30
-0.34
-0.35
-0.31
-0.25
-0.21
-0.23
-0.30
-0.42
-0.53
-0.57
-0.50
-0.34
-0.13
0.10
0.30
0.44
0.45
0.30
-0.03
-0.48
-0.94
-1.30
-1.47
-1.41
-1.18
-0.83
-0.43
-0.03
0.32
0.58
0.70
0.67
0.52
0.33
0.19
0.13
0.13
0.14
0.12
0.07
0.02
0.02
0.07
0.16
0.25
0.29
0.23
0.06
-0.19
-0.46
-0.63
-0.64
-0.44
-0.10
0.25
0.49
0.54
0.43
0.26
0.14
0.13
0.19
0.25
0.20
0.03
-0.21
-0.42
-0.48
-0.34
-0.05
0.28
0.54
0.64
0.60
0.50
0.43
0.45
0.52
0.59
0.58
0.48
0.31
0.11
-0.07
-0.24
-0.38
-0.51
-0.60
-0.59
-0.46
-0.24
0.00
0.18
0.25
0.21
0.08
-0.06
-0.18
-0.27
-0.33
-0.37
-0.40
-0.40
-0.36
-0.29
-0.21
-0.16
-0.20
-0.36
-0.62
-0.92
-1.15
-1.19
-0.98
-0.57
-0.06
0.42
0.76
0.94
0.97
0.90
0.80
0.70
0.61
0.55
0.51
0.44
0.30
0.05
-0.26
-0.54
-0.71
-0.73
-0.64
-0.51
-0.44
-0.44
-0.48
-0.47
-0.36
-0.15
0.12
0.35
0.47
0.45
0.32
0.16
0.05
0.07
0.21
0.39
0.53
0.56
0.49
0.36
0.24
0.15
0.08
0.02
-0.03
-0.01
0.12
0.33
0.56
0.68
0.61
0.37
0.10
-0.05
0.02
0.27
0.56
0.70
0.62
0.38
0.12
-0.03
-0.02
0.05
0.07
-0.05
-0.28
-0.51
-0.63
-0.59
-0.44
-0.30
-0.25
-0.33
-0.50
-0.67
-0.77
-0.74
-0.57
-0.29
0.06
0.37
0.55
0.54
0.36
0.07
-0.23
-0.44
-0.54
-0.53
-0.45
-0.29
-0.05
0.24
0.54
0.74
0.78
0.67
0.48
0.35
0.37
0.57
0.86
1.12
1.21
1.07
0.72
0.26
-0.18
-0.51
-0.66
-0.64
-0.48
-0.27
-0.07
0.05
0.04
-0.11
-0.35
-0.60
-0.76
-0.74
-0.53
-0.19
0.14
0.36
0.39
0.30
0.16
0.07
0.07
0.15
0.24
0.31
0.33
0.34
0.35
0.36
0.33
0.22
0.01
-0.22
-0.36
-0.33
-0.09
0.26
0.58
0.71
0.56
0.19
-0.28
-0.65
-0.79
-0.68
-0.41
-0.08
0.22
0.44
0.61
0.75
0.86
0.90
0.83
0.64
0.35
0.03
-0.26
-0.45
-0.54
-0.55
-0.52
-0.47
-0.40
-0.33
-0.27
-0.26
-0.31
-0.44
-0.58
-0.68
-0.66
-0.54
-0.36
-0.21
-0.15
-0.21
-0.32
-0.41
-0.44
-0.43
-0.43
-0.46
-0.51
-0.50
-0.39
-0.17
0.10
0.31
0.39
0.36
0.27
0.23
0.30
0.46
0.64
0.76
0.80
0.77
0.73
0.71
0.71
0.71
0.71
0.67
0.61
0.50
0.34
0.14
-0.10
-0.32
-0.46
-0.44
-0.28
-0.04
0.20
0.34
0.37
0.31
0.23
0.17
0.14
0.16
0.23
0.33
0.44
0.53
0.56
0.51
0.36
0.14
-0.11
-0.32
-0.46
-0.52
-0.49
-0.43
-0.39
-0.44
-0.61
-0.88
-1.17
-1.35
-1.33
-1.07
-0.63
-0.16
0.21
0.40
0.39
0.23
-0.00
-0.25
-0.46
-0.60
-0.63
-0.56
-0.42
-0.26
-0.13
-0.06
-0.03
-0.00
0.07
0.18
0.31
0.38
0.35
0.24
0.09
0.01
0.06
0.26
0.55
0.82
0.98
0.95
0.77
0.50
0.20
-0.10
-0.41
-0.71
-0.97
-1.08
-0.94
-0.51
0.11
0.74
1.17
1.27
1.02
0.53
-0.01
-0.44
-0.68
-0.72
-0.63
-0.49
-0.38
-0.34
-0.36
-0.44
-0.53
-0.58
-0.57
-0.48
-0.31
-0.06
0.21
0.45
0.58
0.57
0.43
0.23
0.06
-0.02
-0.01
0.03
-0.00
-0.12
-0.29
-0.43
-0.44
-0.30
-0.06
0.18
0.33
0.31
0.17
-0.01
-0.13
-0.12
0.03
0.24
0.42
0.51
0.50
0.41
0.33
0.29
0.30
0.33
0.35
0.33
0.29
0.23
0.17
0.14
0.14
0.19
0.28
0.40
0.47
0.44
0.27
-0.04
-0.40
-0.70
-0.85
-0.81
-0.60
-0.30
-0.01
0.18
0.22
0.11
-0.09
-0.33
-0.50
-0.57
-0.54
-0.45
-0.34
-0.23
-0.13
-0.01
0.15
0.36
0.59
0.82
1.00
1.07
1.02
0.88
0.70
0.58
0.56
0.64
0.72
0.70
0.51
0.20
-0.11
-0.30
-0.30
-0.16
0.02
0.13
0.13
0.03
-0.14
-0.34
-0.54
-0.74
-0.90
-0.97
-0.93
-0.77
-0.53
-0.28
-0.09
0.00
-0.01
-0.09
-0.21
-0.35
-0.48
-0.59
-0.66
-0.70
-0.71
-0.70
-0.65
-0.56
-0.40
-0.19
0.02
0.16
0.20
0.11
-0.04
-0.17
-0.22
-0.16
-0.06
0.02
0.02
-0.03
-0.07
-0.06
0.03
0.15
0.24
0.24
0.16
0.04
-0.10
-0.22
-0.28
-0.28
-0.21
-0.06
0.19
0.47
0.72
0.82
0.75
0.52
0.23
-0.00
-0.09
-0.01
0.17
0.35
0.44
0.37
0.18
-0.09
-0.36
-0.55
-0.65
-0.64
-0.55
-0.39
-0.17
0.07
0.30
0.46
0.50
0.41
0.22
0.03
-0.08
-0.06
0.06
0.19
0.23
0.14
-0.06
-0.27
-0.39
-0.35
-0.17
0.10
0.39
0.65
0.85
0.93
0.82
0.48
-0.04
-0.60
-1.00
-1.12
-0.95
-0.65
-0.45
-0.46
-0.63
-0.81
-0.80
-0.53
-0.11
0.25
0.37
0.21
-0.14
-0.49
-0.72
-0.77
-0.66
-0.47
-0.24
0.00
0.24
0.40
0.40
0.19
-0.20
-0.63
-0.93
-0.99
-0.79
-0.42
-0.04
0.23
0.33
0.31
0.21
0.10
0.03
0.00
0.01
0.02
0.02
-0.02
-0.09
-0.15
-0.13
0.03
0.33
0.71
1.01
1.13
1.02
0.77
0.52
0.40
0.43
0.53
0.56
0.44
0.19
-0.09
-0.25
-0.22
-0.07
0.09
0.12
-0.01
-0.26
-0.51
-0.67
-0.67
-0.55
-0.39
-0.24
-0.14
-0.09
-0.07
-0.07
-0.09
-0.11
-0.10
-0.03
0.14
0.38
0.60
0.73
0.73
0.64
0.54
0.48
0.45
0.41
0.31
0.12
-0.10
-0.29
-0.42
-0.48
-0.51
-0.52
-0.51
-0.45
-0.30
-0.10
0.10
0.23
0.23
0.10
-0.11
-0.31
-0.41
-0.36
-0.16
0.12
0.35
0.46
0.40
0.24
0.05
-0.08
-0.12
-0.11
-0.12
-0.16
-0.21
-0.21
-0.09
0.11
0.32
0.42
0.35
0.16
-0.06
-0.16
-0.10
0.09
0.35
0.57
0.73
0.81
0.78
0.65
0.41
0.08
-0.27
-0.55
-0.69
-0.71
-0.64
-0.56
-0.51
-0.49
-0.47
-0.39
-0.25
-0.08
0.10
0.23
0.28
0.23
0.10
-0.05
-0.17
-0.20
-0.15
-0.05
0.06
0.13
0.16
0.15
0.09
-0.04
-0.25
-0.51
-0.76
-0.93
-0.93
-0.77
-0.46
-0.08
0.29
0.59
0.77
0.81
0.68
0.43
0.14
-0.11
-0.27
-0.34
-0.37
-0.44
-0.54
-0.63
-0.63
-0.49
-0.24
0.01
0.16
0.19
0.13
0.08
0.08
0.13
0.18
0.18
0.12
0.05
0.03
0.06
0.09
0.08
-0.03
-0.24
-0.48
-0.70
-0.86
-0.92
-0.89
-0.76
-0.58
-0.41
-0.34
-0.41
-0.62
-0.88
-1.08
-1.12
-0.95
-0.65
-0.33
-0.10
0.00
-0.03
-0.13
-0.25
-0.36
-0.45
-0.53
-0.61
-0.69
-0.77
-0.83
-0.85
-0.80
-0.67
-0.45
-0.18
0.06
0.24
0.33
0.39
0.46
0.57
0.66
0.66
0.49
0.17
-0.19
-0.43
-0.39
-0.06
0.42
0.86
1.07
1.02
0.81
0.63
0.59
0.73
0.96
1.16
1.23
1.18
1.06
0.95
0.88
0.81
0.72
0.60
0.49
0.44
0.47
0.56
0.66
0.72
0.73
0.69
0.62
0.54
0.48
0.46
0.49
0.58
0.65
0.61
0.40
0.05
-0.35
-0.67
-0.86
-0.93
-0.98
-1.08
-1.22
-1.30
-1.24
-1.01
-0.68
-0.39
-0.21
-0.19
-0.24
-0.28
-0.26
-0.20
-0.16
-0.17
-0.22
-0.27
-0.28
-0.27
-0.28
-0.33
-0.46
-0.62
-0.78
-0.89
-0.92
-0.87
-0.73
-0.54
-0.34
-0.16
-0.06
-0.04
-0.07
-0.09
-0.06
0.06
0.21
0.37
0.51
0.62
0.72
0.79
0.82
0.80
0.73
0.63
0.52
0.41
0.29
0.13
-0.04
-0.20
-0.26
-0.21
-0.09
0.00
-0.03
-0.22
-0.49
-0.71
-0.76
-0.61
-0.34
-0.11
-0.08
-0.32
-0.80
-1.37
-1.89
-2.25
-2.43
-2.47
-2.43
-2.37
-2.32
-2.26
-2.19
-2.09
-1.98
-1.88
-1.82
-1.83
-1.87
-1.85
-1.66
-1.20
-0.46
0.45
1.35
2.06
2.51
2.75
2.91
3.12
3.38
3.61
3.65
3.46
3.08
2.69
2.42
2.36
2.41
2.45
2.33
2.06
1.73
1.48
1.40
1.49
1.62
1.65
1.48
1.12
0.71
0.36
0.17
0.11
0.08
-0.02
-0.22
-0.43
-0.54
-0.45
-0.18
0.10
0.21
0.06
-0.33
-0.77
-1.06
-1.10
-0.90
-0.61
-0.35
-0.25
-0.28
-0.41
-0.55
-0.66
-0.75
-0.81
-0.83
-0.75
-0.59
-0.35
-0.10
0.09
0.18
0.15
0.01
-0.23
-0.55
-0.94
-1.33
-1.63
-1.72
-1.51
-1.03
-0.41
0.14
0.45
0.48
0.31
0.11
0.01
0.03
0.07
0.01
-0.20
-0.48
-0.68
-0.70
-0.52
-0.25
-0.01
0.08
0.04
-0.05
-0.09
-0.05
0.02
0.01
-0.14
-0.41
-0.70
-0.88
-0.85
-0.66
-0.41
-0.22
-0.20
-0.32
-0.52
-0.65
-0.65
-0.48
-0.23
0.04
0.26
0.41
0.48
0.48
0.36
0.14
-0.19
-0.53
-0.80
-0.91
-0.83
-0.63
-0.41
-0.30
-0.33
-0.46
-0.63
-0.73
-0.74
-0.67
-0.56
-0.49
-0.49
-0.55
-0.64
-0.73
-0.77
-0.76
-0.72
-0.65
-0.58
-0.51
-0.46
-0.45
-0.48
-0.53
-0.57
-0.57
-0.54
-0.55
-0.66
-0.88
-1.19
-1.53
-1.85
-2.13
-2.36
-2.52
-2.53
-2.27
-1.67
-0.79
0.18
1.02
1.55
1.72
1.65
1.50
1.40
1.39
1.42
1.45
1.43
1.41
1.42
1.53
1.73
1.96
2.14
2.14
1.95
1.60
1.23
0.97
0.91
1.05
1.26
1.39
1.34
1.13
0.85
0.63
0.55
0.60
0.68
0.69
0.57
0.31
-0.04
-0.36
-0.57
-0.59
-0.46
-0.23
-0.03
0.06
0.02
-0.09
-0.20
-0.26
-0.24
-0.19
-0.15
-0.13
-0.10
-0.01
0.14
0.33
0.52
0.64
0.67
0.58
0.36
0.04
-0.32
-0.62
-0.77
-0.71
-0.44
-0.07
0.26
0.44
0.39
0.12
-0.27
-0.67
-0.97
-1.14
-1.20
-1.20
-1.20
-1.21
-1.24
-1.24
-1.24
-1.27
-1.38
-1.59
-1.85
-2.09
-2.26
-2.38
-2.49
-2.67
-2.92
-3.18
-3.36
-3.39
-3.27
-3.10
-3.02
-3.11
-3.42
-3.89
-4.41
-4.91
-5.28
-5.50
-5.53
-5.40
-5.10
-4.64
-4.05
-3.33
-2.51
-1.62
-0.72
0.15
0.97
1.72
2.40
2.96
3.35
3.46
3.26
2.81
2.24
1.77
1.57
1.71
2.12
2.64
3.05
3.24
3.18
2.98
2.79
2.72
2.86
3.21
3.74
4.35
4.94
5.43
5.77
5.94
5.96
5.91
5.83
5.77
5.73
5.69
5.62
5.56
5.53
5.56
5.64
5.74
5.82
5.85
5.81
5.71
5.50
5.16
4.70
4.15
3.58
3.09
2.74
2.52
2.39
2.28
2.13
1.92
1.63
1.32
1.00
0.70
0.42
0.12
-0.24
-0.71
-1.28
-1.91
-2.54
-3.08
-3.54
-3.90
-4.17
-4.31
-4.24
-3.92
-3.38
-2.76
-2.26
-2.02
-2.10
-2.47
-3.00
-3.54
-3.97
-4.23
-4.29
-4.16
-3.88
-3.54
-3.26
-3.13
-3.18
-3.33
-3.46
-3.43
-3.18
-2.72
-2.16
-1.58
-1.04
-0.56
-0.15
0.19
0.40
0.43
0.26
-0.09
-0.53
-0.97
-1.36
-1.67
-1.92
-2.13
-2.27
-2.35
-2.37
-2.38
-2.46
-2.70
-3.15
-3.75
-4.38
-4.88
-5.12
-5.08
-4.80
-4.42
-4.02
-3.63
-3.23
-2.76
-2.18
-1.52
-0.83
-0.16
0.50
1.13
1.73
2.26
2.65
2.84
2.86
2.76
2.65
2.59
2.62
2.75
2.99
3.30
3.63
3.92
4.09
4.07
3.89
3.60
3.30
3.08
2.98
3.02
3.17
3.39
3.63
3.82
3.87
3.78
3.57
3.32
3.13
3.04
3.04
3.07
3.09
3.08
3.07
3.08
3.11
3.13
3.11
3.03
2.88
2.69
2.45
2.15
1.78
1.39
1.02
0.76
0.66
0.71
0.85
1.02
1.16
1.29
1.43
1.61
1.75
1.77
1.57
1.13
0.56
0.01
-0.33
-0.38
-0.18
0.16
0.53
0.81
0.95
0.93
0.75
0.44
0.05
-0.33
-0.58
-0.66
-0.59
-0.46
-0.40
-0.50
-0.80
-1.29
-1.91
-2.59
-3.24
-3.75
-4.03
-4.00
-3.70
-3.21
-2.69
-2.26
-2.00
-1.89
-1.86
-1.85
-1.83
-1.83
-1.88
-1.99
-2.14
-2.24
-2.23
-2.09
-1.84
-1.58
-1.38
-1.27
-1.21
-1.13
-0.96
-0.72
-0.48
-0.34
-0.40
-0.67
-1.06
-1.44
-1.69
-1.74
-1.60
-1.35
-1.10
-0.91
-0.82
-0.80
-0.81
-0.84
-0.92
-1.07
-1.26
-1.41
-1.40
-1.16
-0.69
-0.11
0.41
0.71
0.70
0.40
-0.06
-0.51
-0.79
-0.83
-0.63
-0.31
-0.02
0.15
0.15
-0.01
-0.24
-0.44
-0.51
-0.38
-0.05
0.40
0.85
1.13
1.15
0.93
0.58
0.27
0.11
0.08
0.08
0.01
-0.19
-0.47
-0.73
-0.89
-0.90
-0.75
-0.47
-0.08
0.37
0.75
0.94
0.85
0.50
-0.00
-0.47
-0.76
-0.81
-0.63
-0.32
0.04
0.35
0.54
0.57
0.44
0.21
0.04
0.02
0.20
0.47
0.68
0.68
0.43
0.01
-0.44
-0.77
-0.91
-0.85
-0.64
-0.36
-0.07
0.16
0.31
0.36
0.32
0.22
0.11
0.03
-0.01
0.01
0.07
0.18
0.31
0.43
0.48
0.42
0.25
0.00
-0.27
-0.48
-0.60
-0.61
-0.52
-0.39
-0.23
-0.10
-0.01
0.00
-0.05
-0.14
-0.23
-0.25
-0.18
-0.01
0.22
0.45
0.64
0.74
0.74
0.66
0.56
0.49
0.48
0.52
0.54
0.48
0.26
-0.07
-0.41
-0.62
-0.59
-0.36
-0.03
0.25
0.37
0.33
0.22
0.11
0.08
0.11
0.14
0.10
-0.02
-0.21
-0.42
-0.59
-0.68
-0.71
-0.68
-0.58
-0.41
-0.17
0.14
0.44
0.67
0.72
0.57
0.27
-0.04
-0.23
-0.21
-0.02
0.21
0.34
0.31
0.13
-0.10
-0.28
-0.39
-0.48
-0.60
-0.75
-0.91
-0.99
-0.93
-0.72
-0.42
-0.11
0.11
0.18
0.12
-0.02
-0.15
-0.18
-0.10
0.08
0.25
0.31
0.20
-0.10
-0.50
-0.85
-1.01
-0.91
-0.57
-0.11
0.32
0.57
0.57
0.36
0.07
-0.17
-0.32
-0.39
-0.45
-0.53
-0.62
-0.67
-0.61
-0.46
-0.27
-0.13
-0.07
-0.07
-0.05
0.05
0.23
0.41
0.51
0.45
0.26
0.04
-0.10
-0.10
0.02
0.18
0.32
0.41
0.49
0.60
0.72
0.79
0.73
0.51
0.18
-0.15
-0.36
-0.39
-0.30
-0.19
-0.12
-0.13
-0.16
-0.14
-0.04
0.14
0.34
0.51
0.64
0.72
0.78
0.78
0.70
0.50
0.17
-0.21
-0.56
-0.77
-0.81
-0.69
-0.48
-0.24
-0.04
0.13
0.25
0.36
0.45
0.49
0.48
0.39
0.23
0.01
-0.25
-0.48
-0.62
-0.62
-0.49
-0.28
-0.09
-0.00
-0.04
-0.15
-0.23
-0.22
-0.10
0.08
0.24
0.31
0.32
0.31
0.34
0.39
0.41
0.36
0.23
0.08
-0.01
-0.01
0.09
0.24
0.38
0.49
0.57
0.59
0.54
0.40
0.18
-0.04
-0.13
-0.01
0.33
0.75
1.08
1.16
0.97
0.58
0.15
-0.20
-0.44
-0.60
-0.76
-0.93
-1.05
-1.03
-0.81
-0.39
0.14
0.63
0.92
0.95
0.72
0.36
0.04
-0.11
-0.03
0.24
0.55
0.77
0.83
0.74
0.56
0.35
0.12
-0.16
-0.48
-0.77
-0.94
-0.91
-0.68
-0.38
-0.17
-0.16
-0.35
-0.62
-0.80
-0.80
-0.65
-0.44
-0.29
-0.26
-0.36
-0.50
-0.62
-0.68
-0.66
-0.57
-0.39
-0.14
0.17
0.45
0.62
0.61
0.42
0.13
-0.14
-0.27
-0.24
-0.11
0.03
0.07
-0.02
-0.16
-0.28
-0.31
-0.24
-0.12
-0.02
0.02
0.04
0.09
0.21
0.40
0.62
0.82
0.99
1.11
1.19
1.19
1.03
0.69
0.21
-0.32
-0.70
-0.81
-0.59
-0.13
0.39
0.79
0.94
0.85
0.61
0.35
0.17
0.07
0.02
-0.03
-0.11
-0.18
-0.20
-0.14
-0.01
0.16
0.33
0.50
0.68
0.88
1.08
1.23
1.24
1.08
0.78
0.42
0.09
-0.13
-0.21
-0.20
-0.16
-0.15
-0.17
-0.22
-0.23
-0.21
-0.16
-0.14
-0.18
-0.27
-0.35
-0.34
-0.20
0.02
0.24
0.34
0.25
-0.02
-0.40
-0.78
-1.05
-1.19
-1.20
-1.12
-0.98
-0.82
-0.67
-0.53
-0.40
-0.26
-0.10
0.08
0.28
0.41
0.39
0.19
-0.19
-0.66
-1.06
-1.25
-1.16
-0.85
-0.42
-0.02
0.28
0.48
0.59
0.67
0.71
0.67
0.52
0.23
-0.14
-0.53
-0.83
-0.96
-0.90
-0.70
-0.41
-0.12
0.08
0.18
0.18
0.12
0.05
0.00
0.02
0.12
0.29
0.51
0.71
0.85
0.87
0.81
0.69
0.57
0.45
0.32
0.17
0.01
-0.11
-0.19
-0.23
-0.26
-0.34
-0.49
-0.68
-0.86
-0.96
-0.96
-0.89
-0.79
-0.68
-0.58
-0.48
-0.38
-0.29
-0.23
-0.19
-0.18
-0.18
-0.18
-0.14
-0.04
0.13
0.34
0.56
0.69
0.67
0.48
0.18
-0.12
-0.31
-0.36
-0.30
-0.22
-0.17
-0.13
-0.05
0.11
0.33
0.52
0.62
0.63
0.59
0.58
0.64
0.73
0.78
0.73
0.60
0.44
0.32
0.29
0.31
0.33
0.30
0.20
0.04
-0.12
-0.25
-0.33
-0.32
-0.22
-0.05
0.18
0.41
0.59
0.69
0.70
0.63
0.54
0.45
0.40
0.37
0.34
0.30
0.25
0.21
0.19
0.20
0.19
0.14
0.04
-0.08
-0.17
-0.17
-0.08
0.05
0.20
0.34
0.46
0.56
0.65
0.66
0.58
0.41
0.19
-0.01
-0.16
-0.25
-0.32
-0.44
-0.61
-0.78
-0.86
-0.79
-0.54
-0.20
0.09
0.19
0.04
-0.32
-0.76
-1.11
-1.23
-1.10
-0.78
-0.42
-0.14
0.02
0.09
0.13
0.18
0.23
0.21
0.07
-0.17
-0.42
-0.56
-0.49
-0.20
0.19
0.49
0.56
0.35
-0.05
-0.47
-0.73
-0.74
-0.52
-0.23
-0.02
0.02
-0.14
-0.40
-0.66
-0.80
-0.82
-0.73
-0.64
-0.58
-0.58
-0.59
-0.57
-0.47
-0.33
-0.21
-0.18
-0.26
-0.38
-0.51
-0.60
-0.64
-0.66
-0.66
-0.63
-0.51
-0.29
0.01
0.35
0.66
0.90
1.09
1.20
1.24
1.16
0.93
0.59
0.22
-0.09
-0.27
-0.33
-0.34
-0.37
-0.46
-0.58
-0.68
-0.69
-0.59
-0.42
-0.25
-0.11
-0.03
0.02
0.05
0.11
0.20
0.34
0.50
0.64
0.73
0.73
0.61
0.41
0.18
0.00
-0.08
-0.07
-0.00
0.08
0.15
0.21
0.26
0.32
0.36
0.35
0.31
0.24
0.19
0.17
0.19
0.22
0.24
0.26
0.30
0.38
0.52
0.68
0.82
0.92
0.95
0.92
0.85
0.73
0.56
0.35
0.14
-0.01
-0.05
0.05
0.26
0.50
0.68
0.71
0.55
0.26
-0.03
-0.22
-0.22
-0.05
0.18
0.36
0.39
0.28
0.09
-0.10
-0.23
-0.29
-0.27
-0.17
-0.00
0.24
0.49
0.68
0.73
0.60
0.35
0.06
-0.20
-0.38
-0.44
-0.40
-0.27
-0.08
0.13
0.29
0.37
0.36
0.30
0.23
0.19
0.15
0.09
0.02
-0.04
-0.03
0.06
0.20
0.30
0.26
0.04
-0.29
-0.64
-0.94
-1.14
-1.27
-1.38
-1.48
-1.56
-1.55
-1.42
-1.21
-0.99
-0.83
-0.77
-0.80
-0.83
-0.77
-0.59
-0.32
-0.05
0.13
0.19
0.16
0.12
0.16
0.29
0.44
0.51
0.44
0.23
-0.05
-0.27
-0.36
-0.30
-0.21
-0.20
-0.34
-0.60
-0.83
-0.88
-0.69
-0.32
0.06
0.28
0.27
0.08
-0.11
-0.14
0.07
0.44
0.80
1.00
0.98
0.82
0.67
0.65
0.78
0.95
1.01
0.87
0.56
0.22
0.05
0.12
0.35
0.58
0.62
0.44
0.15
-0.04
0.02
0.37
0.84
1.21
1.32
1.11
0.71
0.27
-0.08
-0.31
-0.46
-0.60
-0.73
-0.80
-0.75
-0.58
-0.33
-0.12
-0.06
-0.20
-0.48
-0.77
-0.93
-0.90
-0.70
-0.40
-0.11
0.08
0.17
0.19
0.22
0.28
0.39
0.49
0.51
0.44
0.31
0.21
0.24
0.40
0.63
0.79
0.76
0.52
0.15
-0.19
-0.32
-0.19
0.14
0.52
0.81
0.89
0.79
0.59
0.39
0.24
0.15
0.07
-0.03
-0.13
-0.21
-0.22
-0.18
-0.15
-0.15
-0.21
-0.27
-0.25
-0.10
0.13
0.35
0.41
0.23
-0.18
-0.71
-1.20
-1.50
-1.54
-1.30
-0.89
-0.41
0.00
0.25
0.31
0.24
0.12
0.01
-0.05
-0.04
0.03
0.14
0.32
0.54
0.77
0.91
0.90
0.69
0.30
-0.17
-0.63
-0.98
-1.18
-1.23
-1.13
-0.88
-0.53
-0.18
0.07
0.12
-0.02
-0.26
-0.45
-0.48
-0.34
-0.11
0.08
0.16
0.09
-0.08
-0.31
-0.49
-0.58
-0.51
-0.28
0.07
0.42
0.64
0.67
0.55
0.42
0.38
0.48
0.60
0.60
0.36
-0.08
-0.54
-0.82
-0.81
-0.54
-0.15
0.21
0.47
0.64
0.77
0.86
0.88
0.81
0.67
0.54
0.51
0.58
0.70
0.78
0.75
0.64
0.53
0.48
0.49
0.51
0.49
0.41
0.31
0.26
0.31
0.43
0.55
0.59
0.52
0.36
0.17
0.04
0.01
0.08
0.17
0.18
0.07
-0.15
-0.37
-0.49
-0.47
-0.32
-0.12
0.06
0.19
0.30
0.38
0.43
0.41
0.28
0.05
-0.24
-0.51
-0.67
-0.72
-0.68
-0.61
-0.59
-0.66
-0.84
-1.10
-1.40
-1.64
-1.74
-1.63
-1.34
-0.90
-0.43
-0.01
0.28
0.41
0.40
0.29
0.13
-0.06
-0.28
-0.55
-0.86
-1.17
-1.41
-1.48
-1.35
-1.05
-0.67
-0.33
-0.10
0.00
0.02
-0.01
-0.05
-0.11
-0.21
-0.32
-0.40
-0.40
-0.31
-0.16
-0.04
-0.03
-0.16
-0.40
-0.68
-0.94
-1.15
-1.28
-1.33
-1.29
-1.18
-1.01
-0.83
-0.68
-0.58
-0.54
-0.50
-0.37
-0.12
0.27
0.74
1.16
1.42
1.45
1.29
1.01
0.76
0.63
0.69
0.96
1.40
1.96
2.53
2.98
3.17
3.02
2.53
1.82
1.11
0.59
0.41
0.55
0.91
1.30
1.54
1.53
1.26
0.83
0.37
0.02
-0.14
-0.10
0.08
0.34
0.59
0.80
0.93
0.95
0.83
0.57
0.20
-0.18
-0.46
-0.55
-0.42
-0.16
0.12
0.29
0.28
0.08
-0.21
-0.48
-0.62
-0.59
-0.43
-0.23
-0.07
-0.00
-0.04
-0.15
-0.28
-0.43
-0.60
-0.81
-1.06
-1.30
-1.47
-1.51
-1.40
-1.16
-0.91
-0.74
-0.72
-0.85
-1.03
-1.15
-1.15
-1.03
-0.83
-0.64
-0.51
-0.44
-0.45
-0.51
-0.66
-0.89
-1.18
-1.45
-1.60
-1.57
-1.34
-1.00
-0.67
-0.42
-0.32
-0.32
-0.37
-0.41
-0.41
-0.32
-0.12
0.19
0.57
0.92
1.14
1.16
0.98
0.70
0.42
0.27
0.26
0.33
0.38
0.29
0.05
-0.28
-0.59
-0.77
-0.72
-0.46
-0.08
0.31
0.59
0.70
0.66
0.50
0.30
0.10
-0.04
-0.05
0.11
0.45
0.91
1.35
1.59
1.52
1.16
0.66
0.23
0.01
0.01
0.11
0.16
0.11
0.01
-0.05
0.01
0.19
0.39
0.51
0.56
0.58
0.68
0.89
1.15
1.34
1.34
1.11
0.72
0.33
0.05
-0.03
0.07
0.24
0.36
0.35
0.18
-0.08
-0.31
-0.40
-0.26
0.06
0.43
0.68
0.70
0.48
0.10
-0.27
-0.49
-0.49
-0.29
0.01
0.33
0.63
0.90
1.11
1.25
1.24
1.06
0.73
0.37
0.11
0.05
0.19
0.43
0.65
0.75
0.74
0.67
0.62
0.61
0.61
0.54
0.36
0.07
-0.27
-0.59
-0.81
-0.91
-0.88
-0.79
-0.67
-0.59
-0.55
-0.54
-0.53
-0.49
-0.41
-0.33
-0.30
-0.33
-0.41
-0.48
-0.48
-0.40
-0.27
-0.16
-0.10
-0.14
-0.26
-0.45
-0.66
-0.89
-1.10
-1.28
-1.39
-1.41
-1.32
-1.15
-0.95
-0.77
-0.65
-0.62
-0.68
-0.78
-0.90
-0.97
-0.97
-0.87
-0.67
-0.40
-0.07
0.28
0.61
0.88
1.06
1.15
1.15
1.11
1.05
0.96
0.85
0.70
0.49
0.22
-0.06
-0.28
-0.35
-0.22
0.10
0.54
0.97
1.26
1.32
1.14
0.80
0.42
0.11
-0.08
-0.10
0.00
0.21
0.46
0.66
0.73
0.62
0.34
-0.00
-0.27
-0.37
-0.29
-0.13
-0.01
-0.02
-0.14
-0.27
-0.31
-0.25
-0.17
-0.23
-0.48
-0.88
-1.24
-1.36
-1.13
-0.59
0.10
0.71
1.07
1.10
0.86
0.44
-0.02
-0.41
-0.65
-0.70
-0.57
-0.29
0.04
0.32
0.43
0.34
0.09
-0.21
-0.39
-0.35
-0.06
0.39
0.84
1.17
1.32
1.28
1.13
0.94
0.76
0.59
0.43
0.26
0.09
-0.06
-0.15
-0.20
-0.20
-0.22
-0.26
-0.31
-0.31
-0.23
-0.06
0.12
0.23
0.19
0.02
-0.17
-0.27
-0.20
-0.01
0.21
0.33
0.31
0.20
0.12
0.17
0.35
0.57
0.70
0.63
0.34
-0.05
-0.39
-0.57
-0.54
-0.39
-0.26
-0.26
-0.42
-0.67
-0.90
-1.02
-1.04
-0.99
-0.93
-0.88
-0.79
-0.64
-0.41
-0.16
0.04
0.14
0.16
0.11
0.02
-0.11
-0.30
-0.56
-0.87
-1.13
-1.25
-1.18
-0.94
-0.62
-0.35
-0.19
-0.14
-0.12
-0.05
0.15
0.46
0.83
1.12
1.24
1.17
0.93
0.62
0.34
0.13
0.01
-0.06
-0.11
-0.14
-0.14
-0.06
0.07
0.21
0.25
0.14
-0.14
-0.48
-0.71
-0.71
-0.43
0.04
0.52
0.81
0.84
0.61
0.25
-0.11
-0.33
-0.38
-0.29
-0.14
-0.01
0.06
0.08
0.10
0.16
0.24
0.29
0.25
0.06
-0.24
-0.53
-0.70
-0.67
-0.47
-0.23
-0.05
0.01
0.01
0.06
0.22
0.44
0.61
0.58
0.32
-0.09
-0.48
-0.68
-0.61
-0.32
0.04
0.33
0.45
0.43
0.37
0.34
0.41
0.52
0.63
0.63
0.53
0.36
0.20
0.12
0.12
0.17
0.18
0.16
0.12
0.13
0.24
0.43
0.62
0.72
0.67
0.51
0.31
0.18
0.19
0.32
0.52
0.68
0.73
0.62
0.38
0.05
-0.30
-0.56
-0.68
-0.63
-0.46
-0.27
-0.12
-0.09
-0.14
-0.23
-0.30
-0.33
-0.30
-0.24
-0.19
-0.15
-0.14
-0.16
-0.20
-0.29
-0.38
-0.43
-0.36
-0.19
0.06
0.29
0.42
0.41
0.32
0.25
0.24
0.29
0.32
0.24
-0.02
-0.39
-0.75
-0.93
-0.86
-0.56
-0.17
0.15
0.29
0.26
0.14
0.06
0.09
0.24
0.41
0.53
0.52
0.40
0.24
0.12
0.13
0.24
0.41
0.57
0.67
0.72
0.77
0.84
0.94
0.97
0.86
0.56
0.12
-0.34
-0.65
-0.71
-0.51
-0.18
0.14
0.30
0.24
0.03
-0.20
-0.32
-0.26
-0.06
0.17
0.31
0.29
0.16
0.00
-0.08
-0.08
-0.06
-0.13
-0.35
-0.67
-0.94
-1.00
-0.79
-0.37
0.10
0.46
0.61
0.58
0.47
0.42
0.51
0.72
0.94
1.01
0.86
0.47
-0.04
-0.51
-0.82
-0.89
-0.75
-0.50
-0.22
0.03
0.21
0.35
0.43
0.44
0.36
0.18
-0.10
-0.39
-0.63
-0.73
-0.65
-0.44
-0.16
0.08
0.23
0.28
0.24
0.19
0.15
0.15
0.18
0.22
0.21
0.13
-0.00
-0.16
-0.25
-0.23
-0.10
0.08
0.16
0.07
-0.22
-0.60
-0.92
-1.05
-0.94
-0.64
-0.27
0.05
0.25
0.28
0.19
0.01
-0.18
-0.32
-0.37
-0.31
-0.16
0.02
0.15
0.16
0.00
-0.30
-0.69
-1.04
-1.27
-1.29
-1.13
-0.83
-0.49
-0.21
-0.05
-0.04
-0.14
-0.28
-0.38
-0.38
-0.28
-0.17
-0.12
-0.19
-0.32
-0.43
-0.41
-0.22
0.10
0.44
0.70
0.82
0.79
0.64
0.40
0.09
-0.25
-0.57
-0.83
-0.96
-0.96
-0.82
-0.55
-0.18
0.27
0.73
1.10
1.28
1.22
0.94
0.52
0.09
-0.24
-0.36
-0.22
0.18
0.75
1.31
1.68
1.72
1.43
0.97
0.58
0.43
0.55
0.81
1.02
1.01
0.81
0.54
0.32
0.24
0.26
0.27
0.23
0.16
0.13
0.21
0.40
0.62
0.77
0.82
0.76
0.65
0.51
0.32
0.05
-0.29
-0.67
-1.04
-1.34
-1.54
-1.63
-1.60
-1.44
-1.19
-0.93
-0.77
-0.82
-1.08
-1.47
-1.83
-2.00
-1.93
-1.67
-1.33
-1.00
-0.73
-0.46
-0.15
0.21
0.58
0.83
0.84
0.61
0.20
-0.19
-0.38
-0.32
-0.08
0.15
0.21
0.03
-0.30
-0.59
-0.72
-0.67
-0.55
-0.45
-0.44
-0.45
-0.40
-0.21
0.06
0.31
0.41
0.31
0.04
-0.25
-0.40
-0.31
0.05
0.55
1.02
1.24
1.10
0.63
-0.01
-0.55
-0.83
-0.80
-0.52
-0.14
0.24
0.58
0.88
1.10
1.18
1.06
0.72
0.25
-0.22
-0.54
-0.66
-0.62
-0.52
-0.47
-0.50
-0.56
-0.57
-0.51
-0.39
-0.27
-0.19
-0.15
-0.11
-0.04
0.07
0.18
0.20
0.09
-0.16
-0.47
-0.72
-0.82
-0.73
-0.52
-0.29
-0.15
-0.14
-0.24
-0.33
-0.31
-0.10
0.28
0.73
1.10
1.26
1.16
0.88
0.55
0.33
0.29
0.37
0.46
0.44
0.28
0.06
-0.05
0.07
0.41
0.83
1.13
1.16
0.92
0.55
0.23
0.13
0.28
0.57
0.83
0.93
0.81
0.51
0.17
-0.07
-0.15
-0.04
0.15
0.33
0.39
0.28
0.04
-0.25
-0.48
-0.57
-0.51
-0.28
0.07
0.55
1.11
1.64
2.01
2.05
1.67
0.94
0.03
-0.78
-1.29
-1.41
-1.23
-0.92
-0.66
-0.53
-0.51
-0.52
-0.46
-0.30
-0.09
0.09
0.16
0.10
-0.00
-0.09
-0.13
-0.13
-0.18
-0.32
-0.50
-0.62
-0.58
-0.32
0.06
0.42
0.61
0.59
0.41
0.20
0.07
0.05
0.10
0.14
0.13
0.09
0.06
0.10
0.18
0.24
0.18
-0.02
-0.28
-0.49
-0.52
-0.34
-0.04
0.24
0.36
0.29
0.07
-0.20
-0.41
-0.51
-0.51
-0.43
-0.32
-0.20
-0.09
0.04
0.20
0.37
0.49
0.46
0.20
-0.31
-0.94
-1.48
-1.68
-1.41
-0.70
0.21
1.04
1.49
1.46
1.01
0.36
-0.28
-0.71
-0.89
-0.89
-0.78
-0.62
-0.39
-0.05
0.41
0.90
1.27
1.38
1.18
0.76
0.28
-0.07
-0.24
-0.25
-0.20
-0.15
-0.11
-0.04
0.12
0.34
0.59
0.76
0.82
0.76
0.65
0.59
0.61
0.71
0.86
0.97
0.99
0.91
0.73
0.50
0.28
0.13
0.08
0.12
0.23
0.36
0.45
0.51
0.52
0.52
0.52
0.48
0.39
0.23
0.01
-0.22
-0.37
-0.40
-0.29
-0.08
0.15
0.31
0.32
0.17
-0.09
-0.37
-0.51
-0.41
-0.06
0.40
0.77
0.86
0.60
0.08
-0.47
-0.83
-0.89
-0.70
-0.44
-0.26
-0.24
-0.31
-0.36
-0.31
-0.19
-0.08
-0.05
-0.11
-0.17
-0.13
0.09
0.46
0.90
1.27
1.47
1.42
1.11
0.57
-0.11
-0.78
-1.25
-1.40
-1.19
-0.72
-0.17
0.28
0.49
0.45
0.24
-0.04
-0.26
-0.36
-0.30
-0.13
0.09
0.29
0.40
0.40
0.30
0.13
-0.01
-0.09
-0.05
0.08
0.27
0.48
0.67
0.80
0.84
0.79
0.62
0.38
0.11
-0.13
-0.26
-0.23
-0.07
0.14
0.31
0.36
0.26
0.05
-0.19
-0.41
-0.57
-0.68
-0.78
-0.87
-0.97
-1.03
-1.04
-0.99
-0.90
-0.80
-0.74
-0.71
-0.71
-0.73
-0.76
-0.80
-0.84
-0.85
-0.77
-0.59
-0.34
-0.07
0.12
0.16
0.07
-0.06
-0.14
-0.10
-0.00
0.08
0.06
-0.05
-0.19
-0.25
-0.19
-0.05
0.12
0.23
0.25
0.22
0.18
0.17
0.14
0.05
-0.10
-0.27
-0.35
-0.25
0.06
0.52
1.00
1.36
1.49
1.34
0.93
0.37
-0.20
-0.64
-0.82
-0.74
-0.46
-0.09
0.25
0.48
0.62
0.73
0.86
1.03
1.17
1.23
1.16
1.01
0.84
0.71
0.62
0.52
0.38
0.17
-0.06
-0.22
-0.27
-0.20
-0.05
0.09
0.18
0.20
0.20
0.22
0.28
0.38
0.48
0.56
0.60
0.61
0.60
0.54
0.44
0.29
0.13
0.01
-0.06
-0.09
-0.15
-0.29
-0.51
-0.77
-0.98
-1.13
-1.25
-1.40
-1.58
-1.73
-1.74
-1.53
-1.15
-0.75
-0.50
-0.49
-0.62
-0.71
-0.63
-0.36
-0.03
0.18
0.17
-0.04
-0.31
-0.52
-0.61
-0.60
-0.58
-0.57
-0.56
-0.49
-0.35
-0.21
-0.14
-0.18
-0.33
-0.50
-0.59
-0.55
-0.40
-0.21
-0.05
0.02
0.02
-0.04
-0.14
-0.29
-0.46
-0.61
-0.67
-0.57
-0.29
0.13
0.59
1.00
1.26
1.35
1.29
1.10
0.82
0.50
0.19
-0.06
-0.17
-0.12
0.07
0.32
0.53
0.60
0.49
0.25
-0.03
-0.24
-0.34
-0.35
-0.35
-0.40
-0.51
-0.60
-0.57
-0.36
-0.02
0.33
0.57
0.62
0.52
0.40
0.34
0.36
0.40
0.37
0.23
0.03
-0.09
-0.04
0.19
0.51
0.76
0.83
0.73
0.55
0.40
0.35
0.37
0.36
0.23
-0.04
-0.39
-0.68
-0.83
-0.79
-0.62
-0.40
-0.17
0.05
0.30
0.58
0.85
1.03
1.05
0.90
0.62
0.31
0.06
-0.07
-0.10
-0.10
-0.13
-0.20
-0.28
-0.29
-0.18
0.05
0.33
0.56
0.66
0.60
0.41
0.19
0.03
0.02
0.16
0.41
0.66
0.83
0.86
0.74
0.48
0.14
-0.22
-0.54
-0.79
-0.95
-1.05
-1.12
-1.17
-1.22
-1.29
-1.39
-1.50
-1.57
-1.55
-1.37
-1.02
-0.58
-0.20
-0.02
-0.11
-0.42
-0.77
-0.99
-0.96
-0.69
-0.34
-0.04
0.11
0.12
0.08
0.07
0.11
0.16
0.16
0.07
-0.08
-0.23
-0.31
-0.29
-0.21
-0.15
-0.18
-0.31
-0.50
-0.66
-0.69
-0.56
-0.26
0.15
0.56
0.88
1.01
0.96
0.76
0.52
0.38
0.42
0.64
0.96
1.26
1.44
1.48
1.41
1.29
1.15
0.97
0.72
0.41
0.13
0.00
0.12
0.44
0.81
1.03
0.97
0.65
0.22
-0.13
-0.26
-0.19
-0.03
0.08
0.06
-0.09
-0.32
-0.55
-0.71
-0.81
-0.87
-0.93
-1.03
-1.15
-1.21
-1.14
-0.90
-0.51
-0.07
0.29
0.47
0.45
0.28
0.11
0.03
0.09
0.26
0.46
0.62
0.72
0.76
0.75
0.71
0.64
0.54
0.42
0.31
0.25
0.22
0.17
0.07
-0.09
-0.30
-0.48
-0.57
-0.57
-0.47
-0.33
-0.19
-0.07
0.03
0.10
0.13
0.07
-0.09
-0.32
-0.56
-0.73
-0.74
-0.57
-0.26
0.10
0.43
0.63
0.69
0.64
0.52
0.41
0.34
0.33
0.40
0.51
0.63
0.65
0.50
0.15
-0.33
-0.78
-1.03
-0.99
-0.71
-0.35
-0.10
-0.06
-0.22
-0.47
-0.66
-0.74
-0.70
-0.60
-0.50
-0.43
-0.37
-0.34
-0.35
-0.43
-0.56
-0.67
-0.69
-0.57
-0.33
-0.07
0.07
0.03
-0.18
-0.46
-0.69
-0.78
-0.76
-0.65
-0.51
-0.32
-0.07
0.23
0.54
0.75
0.78
0.62
0.33
0.04
-0.14
-0.14
-0.01
0.17
0.32
0.39
0.43
0.52
0.69
0.93
1.15
1.25
1.18
0.97
0.74
0.58
0.53
0.50
0.43
0.30
0.16
0.11
0.21
0.41
0.59
0.63
0.53
0.34
0.22
0.24
0.37
0.50
0.49
0.30
-0.03
-0.39
-0.66
-0.80
-0.84
-0.84
-0.86
-0.90
-0.91
-0.81
-0.62
-0.36
-0.15
-0.08
-0.19
-0.40
-0.60
-0.65
-0.46
-0.09
0.32
0.61
0.67
0.48
0.17
-0.09
-0.16
-0.02
0.24
0.47
0.53
0.36
0.03
-0.34
-0.64
-0.78
-0.78
-0.64
-0.41
-0.08
0.28
0.62
0.84
0.84
0.62
0.26
-0.11
-0.34
-0.35
-0.18
0.05
0.21
0.22
0.09
-0.07
-0.19
-0.18
-0.07
0.08
0.18
0.16
0.03
-0.15
-0.32
-0.40
-0.37
-0.25
-0.09
0.08
0.24
0.38
0.48
0.53
0.53
0.48
0.41
0.35
0.33
0.35
0.38
0.40
0.37
0.29
0.17
0.05
-0.08
-0.21
-0.34
-0.43
-0.49
-0.48
-0.38
-0.20
0.05
0.28
0.43
0.43
0.26
-0.04
-0.38
-0.66
-0.78
-0.73
-0.55
-0.32
-0.13
-0.04
-0.10
-0.27
-0.49
-0.69
-0.79
-0.79
-0.69
-0.51
-0.29
-0.04
0.22
0.46
0.58
0.53
0.27
-0.15
-0.59
-0.90
-0.96
-0.76
-0.36
0.12
0.55
0.84
0.94
0.85
0.61
0.30
0.04
-0.10
-0.11
-0.01
0.16
0.34
0.51
0.67
0.78
0.81
0.69
0.42
0.06
-0.29
-0.48
-0.44
-0.19
0.17
0.47
0.59
0.49
0.21
-0.13
-0.39
-0.48
-0.40
-0.21
-0.00
0.15
0.21
0.22
0.18
0.13
0.07
-0.03
-0.16
-0.32
-0.49
-0.63
-0.72
-0.75
-0.74
-0.69
-0.60
-0.46
-0.25
-0.01
0.20
0.31
0.25
0.03
-0.25
-0.46
-0.51
-0.36
-0.11
0.12
0.23
0.24
0.22
0.28
0.44
0.64
0.74
0.65
0.39
0.11
-0.04
0.02
0.23
0.41
0.41
0.22
-0.05
-0.20
-0.08
0.27
0.67
0.92
0.87
0.57
0.19
-0.07
-0.09
0.09
0.37
0.58
0.64
0.56
0.41
0.30
0.29
0.36
0.50
0.64
0.76
0.84
0.87
0.81
0.63
0.31
-0.13
-0.60
-1.00
-1.20
-1.13
-0.81
-0.32
0.21
0.61
0.79
0.70
0.42
0.07
-0.20
-0.30
-0.19
0.04
0.27
0.39
0.30
0.03
-0.35
-0.71
-0.95
-1.00
-0.90
-0.72
-0.55
-0.45
-0.47
-0.56
-0.70
-0.85
-0.97
-1.03
-0.99
-0.84
-0.59
-0.29
-0.03
0.10
0.08
-0.08
-0.28
-0.42
-0.44
-0.32
-0.11
0.13
0.32
0.43
0.48
0.49
0.53
0.62
0.76
0.91
1.03
1.06
0.99
0.84
0.68
0.58
0.60
0.74
0.93
1.07
1.05
0.82
0.41
-0.08
-0.52
-0.79
-0.87
-0.76
-0.49
-0.12
0.28
0.59
0.74
0.66
0.38
-0.00
-0.34
-0.51
-0.50
-0.36
-0.20
-0.13
-0.15
-0.23
-0.30
-0.33
-0.32
-0.28
-0.24
-0.20
-0.13
-0.02
0.11
0.24
0.31
0.30
0.23
0.18
0.21
0.34
0.54
0.74
0.80
0.69
0.40
-0.00
-0.39
-0.67
-0.79
-0.75
-0.61
-0.45
-0.33
-0.29
-0.31
-0.34
-0.32
-0.18
0.07
0.40
0.76
1.10
1.35
1.47
1.44
1.20
0.78
0.23
-0.30
-0.68
-0.81
-0.69
-0.42
-0.15
-0.01
-0.03
-0.18
-0.37
-0.52
-0.56
-0.51
-0.39
-0.25
-0.13
-0.03
0.03
0.07
0.10
0.12
0.11
0.07
0.02
-0.01
0.02
0.11
0.24
0.34
0.31
0.13
-0.15
-0.42
-0.51
-0.34
0.09
0.62
1.04
1.18
0.98
0.53
0.01
-0.38
-0.55
-0.51
-0.38
-0.28
-0.28
-0.36
-0.46
-0.53
-0.51
-0.42
-0.29
-0.17
-0.09
-0.06
-0.06
-0.08
-0.07
0.01
0.17
0.37
0.56
0.67
0.67
0.54
0.35
0.15
-0.02
-0.10
-0.08
0.04
0.25
0.48
0.67
0.75
0.67
0.48
0.26
0.10
0.04
0.08
0.17
0.25
0.33
0.42
0.55
0.72
0.86
0.91
0.85
0.71
0.57
0.47
0.44
0.43
0.42
0.39
0.38
0.39
0.39
0.29
0.05
-0.35
-0.80
-1.18
-1.40
-1.45
-1.40
-1.32
-1.24
-1.12
-0.92
-0.63
-0.28
0.05
0.28
0.34
0.23
-0.03
-0.38
-0.68
-0.83
-0.76
-0.52
-0.23
-0.03
0.03
-0.01
-0.03
0.03
0.13
0.14
-0.01
-0.32
-0.62
-0.76
-0.67
-0.43
-0.21
-0.16
-0.26
-0.41
-0.43
-0.27
-0.02
0.16
0.12
-0.12
-0.42
-0.58
-0.46
-0.08
0.38
0.73
0.83
0.65
0.30
-0.06
-0.28
-0.28
-0.08
0.27
0.66
0.95
1.06
0.97
0.70
0.39
0.15
0.09
0.20
0.41
0.62
0.71
0.66
0.43
0.07
-0.39
-0.86
-1.24
-1.39
-1.22
-0.72
-0.03
0.63
1.01
0.99
0.61
0.05
-0.47
-0.76
-0.76
-0.54
-0.23
0.04
0.20
0.24
0.20
0.09
-0.06
-0.25
-0.45
-0.64
-0.78
-0.81
-0.71
-0.46
-0.11
0.22
0.42
0.37
0.12
-0.23
-0.45
-0.39
-0.04
0.47
0.92
1.15
1.12
0.93
0.71
0.55
0.45
0.36
0.21
0.01
-0.17
-0.27
-0.22
-0.06
0.18
0.41
0.58
0.69
0.76
0.81
0.87
0.97
1.04
1.04
0.87
0.53
0.07
-0.36
-0.63
-0.64
-0.42
-0.08
0.25
0.47
0.55
0.50
0.35
0.12
-0.21
-0.60
-1.00
-1.29
-1.38
-1.23
-0.88
-0.47
-0.13
-0.01
-0.11
-0.38
-0.68
-0.86
-0.82
-0.57
-0.22
0.09
0.26
0.23
0.07
-0.16
-0.36
-0.48
-0.54
-0.60
-0.69
-0.82
-0.97
-1.05
-0.98
-0.73
-0.33
0.12
0.47
0.61
0.52
0.29
0.07
-0.05
-0.05
-0.02
-0.08
-0.26
-0.52
-0.73
-0.76
-0.61
-0.34
-0.11
0.01
-0.00
-0.04
-0.02
0.13
0.38
0.64
0.84
0.96
1.00
0.98
0.89
0.73
0.48
0.22
0.06
0.11
0.35
0.66
0.85
0.76
0.39
-0.10
-0.49
-0.60
-0.45
-0.20
-0.06
-0.13
-0.35
-0.55
-0.58
-0.40
-0.07
0.21
0.32
0.25
0.07
-0.10
-0.17
-0.16
-0.15
-0.20
-0.33
-0.48
-0.59
-0.63
-0.59
-0.54
-0.49
-0.46
-0.41
-0.30
-0.15
0.03
0.18
0.29
0.35
0.37
0.33
0.23
0.03
-0.22
-0.46
-0.57
-0.48
-0.21
0.14
0.41
0.49
0.36
0.16
0.05
0.12
0.38
0.67
0.83
0.77
0.55
0.31
0.22
0.34
0.60
0.83
0.87
0.68
0.32
-0.02
-0.18
-0.08
0.24
0.65
1.00
1.14
1.02
0.65
0.17
-0.29
-0.59
-0.69
-0.60
-0.40
-0.16
0.10
0.36
0.58
0.73
0.72
0.51
0.14
-0.26
-0.51
-0.49
-0.20
0.23
0.58
0.72
0.60
0.31
-0.03
-0.30
-0.47
-0.56
-0.64
-0.74
-0.86
-0.94
-0.96
-0.94
-0.89
-0.86
-0.82
-0.74
-0.57
-0.32
-0.03
0.20
0.27
0.16
-0.08
-0.35
-0.56
-0.64
-0.61
-0.54
-0.47
-0.43
-0.41
-0.35
-0.25
-0.14
-0.09
-0.16
-0.34
-0.58
-0.72
-0.67
-0.41
-0.00
0.40
0.66
0.75
0.68
0.56
0.45
0.39
0.35
0.34
0.35
0.40
0.49
0.60
0.65
0.60
0.44
0.20
-0.01
-0.11
-0.05
0.12
0.28
0.29
0.10
-0.26
-0.65
-0.90
-0.91
-0.67
-0.29
0.08
0.33
0.43
0.43
0.40
0.42
0.50
0.61
0.72
0.81
0.84
0.81
0.67
0.46
0.19
-0.05
-0.19
-0.21
-0.11
0.04
0.17
0.22
0.18
0.10
0.03
0.03
0.11
0.22
0.29
0.28
0.17
-0.03
-0.29
-0.55
-0.74
-0.83
-0.79
-0.65
-0.47
-0.30
-0.20
-0.13
-0.06
0.07
0.28
0.54
0.82
1.08
1.29
1.44
1.51
1.43
1.16
0.72
0.20
-0.24
-0.47
-0.44
-0.22
0.04
0.25
0.37
0.46
0.56
0.69
0.81
0.84
0.73
0.47
0.12
-0.23
-0.50
-0.66
-0.70
-0.65
-0.53
-0.36
-0.14
0.13
0.43
0.71
0.92
1.00
0.92
0.66
0.28
-0.17
-0.61
-0.98
-1.23
-1.33
-1.31
-1.18
-0.97
-0.71
-0.45
-0.23
-0.08
-0.02
-0.03
-0.04
-0.04
-0.04
-0.12
-0.32
-0.66
-1.04
-1.29
-1.29
-1.02
-0.57
-0.15
0.09
0.08
-0.10
-0.30
-0.39
-0.31
-0.13
0.05
0.14
0.12
0.01
-0.14
-0.29
-0.41
-0.51
-0.57
-0.60
-0.59
-0.51
-0.39
-0.24
-0.08
0.06
0.19
0.28
0.33
0.32
0.28
0.23
0.22
0.28
0.38
0.48
0.51
0.46
0.32
0.14
-0.00
-0.09
-0.09
-0.01
