1630944177.00
64.000000
-0.00
-0.00
-0.00
-0.00
-0.00
-0.00
-0.00
-0.00
-0.00
-0.00
0.00
0.01
0.01
-0.00
-0.03
-0.05
-0.05
0.00
0.13
0.36
0.66
1.01
1.37
1.72
2.06
2.40
2.79
3.24
3.80
4.42
5.06
5.66
6.20
6.68
7.15
7.68
8.31
9.14
10.09
11.04
11.88
12.56
13.14
13.76
14.65
15.96
17.91
20.32
22.90
25.38
27.58
29.57
31.68
34.32
37.81
42.54
48.15
54.10
59.83
64.97
69.58
74.14
79.34
85.71
93.76
103.00
112.62
121.73
129.77
136.75
143.30
150.75
157.77
166.64
177.95
191.79
206.97
220.57
228.25
225.36
208.53
176.87
132.76
80.05
23.07
-34.94
-92.44
-149.16
-205.23
-260.37
-313.73
-363.85
-409.80
-450.88
-486.51
-515.82
-537.42
-549.54
-550.41
-538.93
-514.83
-479.33
-434.55
-383.13
-327.75
-270.67
-213.61
-157.82
-104.28
-53.81
-7.37
34.13
69.99
99.86
123.85
142.47
156.48
166.66
173.72
178.04
179.83
179.21
176.33
171.45
165.04
157.66
149.85
142.02
134.33
126.72
118.93
110.72
101.94
92.72
83.40
74.46
66.34
59.20
52.89
46.94
40.76
33.92
26.35
18.39
10.75
4.18
-0.79
-4.13
-6.41
-8.72
-12.36
-18.24
-26.31
-35.10
-41.97
-43.79
-38.26
-24.93
-5.43
16.93
38.31
55.39
66.08
69.92
68.08
63.24
58.94
58.45
63.50
73.21
84.12
91.57
91.76
83.46
68.51
50.73
34.21
21.58
13.57
9.40
7.72
7.33
7.44
7.65
7.64
7.15
5.80
3.33
-0.45
-5.59
-11.85
-18.79
-25.78
-32.14
-37.21
-40.44
-41.30
-39.33
-34.33
-26.73
-17.70
-9.07
-2.70
0.30
0.21
-1.45
-2.64
-1.88
0.97
4.67
7.31
7.41
4.79
0.65
-3.03
-4.51
-3.23
0.10
3.82
6.25
6.51
4.86
2.49
0.75
0.50
1.77
3.89
6.01
7.60
8.62
9.43
10.36
11.33
11.90
11.41
9.40
5.88
1.59
-2.46
-5.06
-5.38
-3.44
-0.28
2.43
3.03
0.72
-4.07
-9.87
-14.83
-17.67
-18.10
-16.81
-14.88
-13.10
-11.64
-10.10
-7.98
-5.09
-1.81
1.09
2.82
2.94
1.67
-0.23
-1.81
-2.39
-1.95
-1.18
-1.08
-2.34
-4.96
-8.09
-10.47
-11.03
-9.48
-6.36
-2.83
-0.04
1.35
1.43
0.84
0.24
-0.09
-0.46
-1.47
-3.57
-6.63
-9.84
-12.09
-12.56
-11.24
-8.98
-6.98
-6.11
-6.39
-7.02
-7.00
-5.76
-3.54
-1.30
-0.13
-0.78
-3.18
-6.50
-9.56
-11.46
-11.98
-11.64
-11.31
-11.66
-12.76
-13.97
-14.27
-12.77
-9.09
-3.48
3.44
11.04
18.96
26.94
34.62
41.10
45.04
45.09
40.57
31.82
20.14
7.07
-6.27
-19.46
-32.51
-45.15
-56.43
-64.80
-68.88
-68.10
-63.06
-55.06
-45.34
-34.54
-22.75
-10.10
2.74
14.52
24.02
30.72
35.16
38.59
42.17
46.19
49.87
51.62
49.87
43.63
32.83
18.33
1.69
-15.07
-29.80
-40.71
-46.72
-47.79
-44.89
-39.60
-33.58
-28.01
-23.33
-19.32
-15.41
-11.03
-5.86
0.09
6.53
12.92
18.58
22.74
24.79
24.54
22.43
19.49
17.03
16.11
17.08
19.41
21.95
23.45
23.03
20.49
16.26
11.17
6.13
1.93
-0.95
-2.30
-2.22
-1.04
0.76
2.66
4.23
5.22
5.55
5.36
4.92
4.50
4.24
4.08
3.72
2.80
1.03
-1.62
-4.84
-8.07
-10.58
-11.71
-11.02
-8.44
-4.31
0.62
5.43
9.23
11.44
11.92
10.98
9.15
6.96
4.78
2.76
0.93
-0.60
-1.64
-2.01
-1.60
-0.58
0.70
1.83
2.48
2.58
2.30
1.94
1.69
1.58
1.47
1.13
0.31
-1.09
-3.00
-5.10
-6.76
-7.23
-5.90
-2.59
2.23
7.57
12.26
15.41
16.75
16.55
15.34
13.62
11.55
9.16
6.48
3.83
1.74
0.76
1.11
2.57
4.56
6.35
7.44
7.66
7.22
6.47
5.74
5.08
4.27
3.02
1.16
-1.12
-3.33
-4.85
-5.28
-4.64
-3.40
-2.29
-2.00
-2.85
-4.70
-6.95
-8.77
-9.41
-8.46
-6.08
-2.95
-0.09
1.56
1.50
-0.18
-2.90
-5.94
-8.83
-11.53
-14.29
-17.36
-20.74
-24.05
-26.74
-28.35
-28.73
-28.04
-26.62
-24.77
-22.61
-20.15
-17.44
-14.57
-11.76
-9.17
-6.85
-4.70
-2.57
-0.36
1.89
4.05
5.90
7.26
8.01
8.09
7.55
6.62
5.76
5.62
6.83
9.75
14.16
19.25
23.88
27.01
28.08
27.15
24.79
21.71
18.46
15.25
12.04
8.84
5.78
3.20
1.44
0.60
0.49
0.65
0.64
0.18
-0.72
-1.84
-2.94
-3.87
-4.62
-5.37
-6.35
-7.74
-9.61
-11.78
-13.88
-15.45
-16.11
-15.79
-14.75
-13.39
-12.04
-10.66
-8.98
-6.71
-3.87
-0.84
1.92
4.25
6.52
9.54
14.03
20.20
27.45
34.58
40.32
43.86
45.13
44.80
43.86
43.12
42.85
42.67
41.75
39.28
34.89
28.88
22.06
15.37
9.48
4.68
1.03
-1.40
-2.35
-1.53
1.08
5.05
9.86
15.53
23.17
34.80
52.25
76.06
104.78
135.28
163.92
187.80
205.56
217.08
222.84
222.88
216.84
204.45
185.98
162.14
133.54
100.48
63.24
23.08
-17.57
-54.89
-84.85
-105.19
-116.70
-123.05
-128.39
-134.81
-140.92
-144.03
-141.65
-133.51
-122.01
-111.46
-106.18
-108.36
-117.16
-129.26
-142.10
-153.15
-159.47
-157.61
-144.95
-121.53
-90.51
-57.40
-28.17
-10.26
-8.98
-25.81
-58.15
-101.05
-149.33
-198.35
-244.34
-269.51
-260.64
-216.50
-150.20
-79.90
-18.40
29.64
65.26
91.62
112.53
128.46
138.66
142.81
142.16
138.92
135.18
132.64
131.16
132.11
134.29
135.63
134.54
130.79
125.27
119.29
114.27
110.99
110.21
110.77
110.38
106.90
99.07
86.34
68.16
48.05
27.18
6.06
-15.55
-36.62
-53.89
-62.73
-59.55
-44.09
-19.85
7.06
31.59
51.15
65.60
75.39
79.52
75.09
58.94
30.01
-9.56
-54.68
-99.88
-142.15
-181.80
-221.81
-265.90
-316.10
-371.47
-427.95
-478.91
-517.42
-538.67
-541.98
-530.65
-509.88
-484.00
-454.46
-420.08
-378.98
-331.22
-279.91
-230.16
-186.48
-150.42
-119.95
-90.92
-59.50
-24.03
14.33
52.71
87.96
118.51
145.14
171.00
200.21
235.98
278.77
325.74
372.12
413.09
445.44
467.98
480.77
484.47
480.73
473.30
468.57
474.11
495.05
530.51
572.09
606.30
620.04
606.22
566.40
509.19
445.62
384.29
328.92
279.30
233.56
190.32
149.39
110.92
73.85
35.56
-6.74
-53.25
-99.68
-137.85
-158.93
-157.87
-136.78
-104.78
-74.30
-56.18
-56.35
-74.91
-107.66
-148.14
-188.89
-222.51
-243.27
-249.10
-243.18
-233.01
-227.08
-230.69
-243.47
-260.47
-275.71
-285.35
-288.07
-283.45
-270.15
-246.53
-213.57
-177.13
-147.06
-132.54
-136.07
-150.48
-161.31
-153.41
-118.23
-57.87
15.88
86.66
139.44
165.66
164.96
143.60
110.85
74.76
39.44
5.47
-27.62
-58.56
-83.30
-96.79
-95.88
-81.75
-59.73
-37.08
-19.85
-10.77
-9.14
-12.34
-17.54
-22.98
-28.23
-34.11
-42.16
-53.37
-66.88
-79.62
-87.72
-89.22
-86.29
-84.61
-89.91
-103.25
-118.27
-123.11
-105.86
-61.15
6.00
81.31
146.49
186.42
194.33
172.76
131.16
81.57
34.86
-1.70
-25.15
-35.76
-35.37
-26.06
-9.53
12.03
35.36
55.98
69.25
72.20
64.76
49.67
30.94
11.75
-6.40
-23.27
-38.91
-52.72
-62.81
-66.88
-63.66
-54.50
-43.82
-37.41
-39.95
-52.48
-70.92
-86.70
-89.64
-72.36
-33.83
18.94
73.88
118.88
146.47
155.47
149.61
134.09
112.73
87.19
56.85
22.38
-12.86
-43.20
-63.05
-69.51
-64.03
-52.17
-41.53
-41.18
-55.56
-82.92
-116.62
-148.35
-170.65
-178.09
-167.53
-138.59
-97.95
-54.25
-16.80
5.42
4.90
-22.47
-75.56
-148.01
-229.76
-313.87
-391.29
-451.70
-486.38
-492.03
-472.36
-435.88
-392.68
-323.01
-224.85
-112.67
-9.10
70.60
123.41
153.68
168.16
173.12
173.06
165.91
151.08
130.47
107.93
87.83
71.85
60.42
53.18
49.22
43.72
34.33
21.35
7.10
-6.02
-16.57
-23.50
-25.65
-21.28
-15.25
-9.35
-3.59
3.11
11.68
22.21
34.63
48.94
65.31
82.77
101.33
121.21
142.58
165.33
188.97
213.27
238.39
264.79
292.47
321.94
353.69
388.25
425.95
466.37
507.88
547.43
581.16
605.64
619.49
623.39
619.36
609.21
593.32
570.50
539.18
499.04
451.96
401.87
353.01
308.34
268.69
233.21
200.56
170.04
141.95
117.19
96.58
80.16
67.12
56.25
46.45
37.11
28.27
19.94
12.35
5.81
0.46
-4.05
-8.43
-13.44
-19.64
-27.09
-35.88
-45.63
-55.64
-65.11
-73.63
-81.35
-88.68
-96.22
-104.24
-113.64
-124.44
-135.45
-144.98
-151.92
-156.51
-159.94
-164.17
-170.68
-183.04
-202.28
-226.00
-249.69
-269.74
-285.43
-298.01
-310.89
-326.63
-352.44
-390.77
-437.44
-484.00
-523.58
-554.26
-577.38
-598.32
-621.60
-660.26
-721.23
-800.97
-886.98
-964.60
-1022.32
-1051.63
-1053.04
-1032.63
-1014.95
-1020.82
-1056.85
-1113.46
-1172.97
-1218.99
-1239.04
-1233.07
-1121.20
-877.71
-541.33
-191.99
105.60
328.54
468.33
556.70
612.65
646.46
651.62
627.25
582.96
535.26
498.21
477.10
471.82
474.50
478.70
470.76
444.24
402.99
358.11
319.88
292.55
276.82
267.62
260.90
248.16
225.43
195.04
163.80
137.94
119.93
110.01
104.79
101.46
95.24
83.70
67.58
49.99
33.96
20.88
11.22
3.80
-2.30
-8.63
-15.90
-23.73
-31.02
-36.73
-40.47
-42.16
-42.22
-40.32
-35.96
-28.92
-19.37
-7.69
5.66
20.22
35.51
51.31
68.11
86.41
106.33
127.44
148.92
169.71
188.76
205.17
218.63
230.65
242.84
256.05
269.98
283.58
295.72
305.46
312.15
316.16
321.98
333.38
351.56
374.91
401.07
428.57
456.84
484.66
510.51
538.53
569.97
601.65
627.51
643.17
648.27
644.90
633.98
616.56
603.71
603.14
615.40
634.14
651.78
663.88
669.06
666.33
658.26
662.05
689.49
740.24
802.03
860.15
905.79
937.30
955.67
873.70
649.96
308.17
-72.47
-413.80
-676.36
-855.79
-955.64
-1008.24
-1034.73
-1033.51
-1002.12
-945.17
-875.47
-807.19
-748.89
-704.03
-674.81
-658.41
-640.27
-609.39
-563.61
-509.99
-458.43
-415.86
-384.99
-366.66
-357.05
-345.06
-322.79
-289.21
-250.34
-214.34
-186.84
-169.57
-161.76
-159.33
-155.40
-146.25
-132.92
-119.90
-111.31
-107.68
-106.14
-103.03
-95.54
-82.82
-66.89
-50.72
-35.91
-21.28
-3.92
18.07
43.44
68.33
88.14
100.42
106.33
109.87
115.33
125.00
138.27
152.68
165.82
176.82
186.43
195.84
205.01
211.91
213.06
205.17
187.48
163.05
138.11
119.46
111.05
111.37
113.45
108.02
88.37
54.23
12.37
-26.61
-54.02
-67.68
-73.16
-80.64
-99.40
-132.81
-176.50
-220.53
-254.26
-271.01
-270.23
-256.76
-237.53
-218.29
-201.85
-188.53
-177.43
-167.75
-159.22
-151.80
-145.67
-141.58
-141.28
-147.52
-163.20
-190.11
-227.97
-274.07
-323.75
-371.39
-411.12
-437.47
-446.23
-435.36
-405.87
-361.91
-309.84
-256.31
-206.30
-162.02
-123.15
-88.03
-54.63
-21.26
13.66
51.73
94.41
142.17
193.75
245.60
291.97
326.51
344.44
344.67
330.33
307.55
283.05
261.78
245.58
233.37
222.52
210.48
196.19
179.50
160.27
138.01
112.54
84.86
57.51
33.82
16.55
7.72
6.63
9.86
12.71
11.69
6.23
-1.50
-8.37
-12.04
-9.98
-1.38
12.74
30.13
48.63
66.97
84.27
99.46
111.42
122.30
135.32
153.13
176.38
203.91
233.70
263.21
289.62
294.40
265.11
202.42
121.55
41.67
-24.51
-72.79
-104.91
-125.30
-138.70
-145.69
-144.92
-135.14
-117.35
-94.95
-72.52
-54.65
-44.64
-43.32
-46.74
-49.39
-47.20
-39.24
-28.25
-17.62
-9.80
-5.76
-5.12
-5.49
-4.71
-2.19
0.74
1.89
0.22
-3.77
-8.36
-11.66
-11.84
-8.26
-1.59
6.49
14.29
20.82
25.51
27.57
24.42
12.71
-9.97
-42.20
-78.38
-111.42
-135.84
-149.44
-153.46
-151.20
-145.93
-139.75
-133.42
-127.33
-122.50
-120.69
-123.25
-129.65
-136.74
-138.77
-129.30
-104.42
-65.21
-18.00
27.88
64.29
88.65
102.24
109.08
113.50
118.15
123.26
127.82
130.99
134.00
139.66
149.88
163.52
175.93
180.53
171.65
147.58
110.92
68.81
30.10
1.45
-15.23
-22.63
-25.91
-29.37
-35.74
-47.66
-66.62
-92.61
-123.86
-156.47
-184.12
-199.78
-198.55
-173.43
-128.57
-77.82
-35.74
-8.24
8.00
19.89
32.02
43.74
51.93
53.53
49.29
43.70
42.24
46.56
55.89
66.69
74.72
77.42
74.49
68.83
64.59
64.49
64.80
60.20
46.53
23.75
-3.96
-31.17
-53.16
-67.62
-74.29
-74.08
-67.05
-52.73
-31.29
-5.08
20.83
41.94
54.48
57.52
53.01
45.04
37.41
32.07
28.88
26.08
23.43
22.05
24.30
31.64
43.21
55.20
62.50
60.95
49.79
32.51
13.52
-2.35
-11.82
-14.02
-10.51
-3.98
2.96
9.00
14.05
18.09
20.83
21.45
19.24
14.19
8.90
5.87
6.81
11.30
16.39
18.06
13.24
1.54
-14.25
-29.41
-39.80
-43.41
-40.87
-34.69
-27.53
-21.19
-16.46
-13.36
-11.41
-9.88
-7.53
-2.94
4.30
12.35
16.91
12.88
-2.84
-28.65
-58.15
-82.71
-95.72
-95.70
-86.59
-75.03
-66.45
-62.70
-62.47
-63.79
-66.31
-71.55
-80.91
-93.42
-105.11
-111.01
-108.27
-98.13
-85.03
-73.24
-63.69
-53.13
-36.20
-9.55
25.18
61.85
93.30
115.63
130.37
143.10
159.39
181.33
206.73
231.08
250.46
263.50
271.18
275.12
276.08
273.86
268.06
259.13
248.62
238.57
230.81
226.54
226.53
231.24
240.73
254.20
269.73
284.65
296.19
302.17
301.19
292.50
275.88
251.72
221.21
186.46
150.27
115.67
85.41
61.51
44.86
35.12
30.69
29.04
27.46
23.85
17.10
7.21
-5.33
-20.06
-36.71
-55.10
-74.74
-94.81
-114.47
-133.44
-152.38
-172.68
-195.79
-222.30
-251.67
-282.17
-311.69
-338.70
-362.94
-385.63
-409.10
-436.12
-469.07
-509.13
-555.45
-604.58
-650.48
-685.61
-702.99
-698.55
-672.61
-629.54
-575.71
-516.77
-455.64
-392.52
-326.44
-257.43
-187.49
-120.17
-58.48
-3.18
47.88
98.83
153.97
216.30
286.36
362.14
439.14
510.74
569.06
606.59
618.59
605.26
572.58
530.76
490.77
460.25
440.98
429.02
417.50
400.07
373.76
339.39
299.98
258.46
216.25
173.33
129.26
84.26
39.46
-3.72
-44.45
-83.23
-121.69
-161.88
-205.11
-251.22
-298.65
-345.47
-390.24
-433.10
-476.35
-523.67
-577.86
-638.21
-698.85
-749.68
-780.53
-784.16
-759.19
-710.77
-648.71
-583.53
-522.64
-468.64
-420.29
-376.39
-335.15
-294.52
-252.19
-206.39
-156.84
-106.00
-59.61
-25.96
-15.71
-33.46
-74.10
-123.85
-166.18
-188.26
-185.15
-159.83
-120.59
-80.30
-46.56
-19.51
6.16
36.06
72.81
115.96
164.66
240.73
347.20
468.22
577.17
652.48
684.16
672.16
623.54
551.82
473.56
399.62
336.63
285.42
243.62
207.64
173.86
140.01
107.67
80.63
59.82
46.22
41.09
45.61
59.40
83.90
112.03
135.20
147.93
147.84
136.81
118.86
98.23
77.87
59.21
42.58
29.15
20.00
14.26
10.23
6.41
2.00
-2.99
-7.21
-10.20
-10.67
-7.36
-0.30
9.39
20.04
30.04
38.22
43.88
47.38
50.07
53.74
60.14
70.73
86.57
108.38
136.55
164.88
188.15
201.55
201.84
188.51
164.26
134.22
104.21
78.75
59.82
47.70
41.07
38.13
37.13
36.41
34.36
29.58
21.42
10.50
-0.63
-9.14
-13.00
-12.18
-8.62
-5.18
-4.06
-5.56
-7.97
-8.24
-4.11
4.72
16.50
28.31
37.60
43.06
44.50
41.84
34.83
23.00
6.66
-12.39
-31.42
-48.62
-65.03
-84.83
-113.30
-153.24
-202.17
-252.17
-292.95
-316.38
-319.94
-307.04
-284.31
-257.78
-230.22
-201.29
-169.57
-134.97
-99.46
-65.94
-36.61
-11.55
10.98
33.02
55.26
76.58
94.80
107.87
115.14
117.43
116.46
114.00
111.39
109.49
108.83
109.61
111.44
113.07
112.62
108.52
100.46
90.00
80.08
73.74
72.49
75.38
79.37
80.70
76.79
67.32
54.17
40.32
28.42
19.70
13.95
10.12
7.16
4.52
2.09
-0.11
-2.17
-4.31
-6.72
-9.35
-12.02
-14.48
-16.60
-18.31
-19.56
-20.22
-20.23
-19.78
-19.39
-19.72
-21.24
-23.77
-26.52
-28.33
-28.35
-26.51
-23.62
-20.92
-19.44
-19.44
-20.42
-21.58
-22.35
-22.79
-23.39
-24.61
-26.43
-28.27
-29.32
-29.09
-27.65
-25.63
-23.66
-22.00
-20.32
-18.00
-14.62
-10.32
-5.83
-2.12
0.11
0.75
0.24
-0.73
-1.66
-2.42
-3.20
-4.21
-5.44
-6.62
-7.38
-7.53
-7.15
-6.58
-6.14
-5.96
-5.88
-5.63
-5.05
-4.25
-3.58
-3.45
-4.11
-5.41
-6.89
-7.90
-7.90
-6.57
-3.96
-0.35
3.79
8.01
11.86
15.07
17.51
19.21
20.29
20.87
20.97
20.51
19.41
17.71
15.65
13.59
11.95
10.94
10.54
10.58
10.79
11.02
11.20
11.30
11.23
10.81
9.89
8.40
6.47
4.31
2.12
0.01
-2.04
-4.04
-5.87
-7.27
-7.96
-7.82
-7.06
-6.09
-5.36
-5.09
-5.21
-5.37
-5.27
-4.80
-4.17
-3.73
-3.76
-4.30
-5.15
-5.94
-6.34
-6.21
-5.57
-4.58
-3.45
-2.33
-1.34
-0.56
-0.04
0.21
0.20
0.00
-0.30
-0.67
-1.10
-1.63
-2.29
-3.01
-3.68
-4.09
-4.05
-3.40
-2.06
-0.04
2.53
5.48
8.53
11.37
13.67
15.12
15.48
14.68
12.83
10.21
7.21
4.30
1.92
0.48
0.22
1.10
2.80
4.77
6.47
7.64
8.47
9.40
10.80
12.57
14.07
14.42
13.07
10.15
6.43
2.86
-0.02
-2.29
-4.43
-6.68
-8.64
-9.41
-8.17
-4.82
-0.20
4.41
8.03
10.46
12.25
14.07
16.03
17.48
17.46
15.40
11.55
6.91
2.58
-0.82
-3.42
-5.76
-8.20
-10.59
-12.39
-13.22
-13.32
-13.58
-14.99
-17.94
-21.69
-24.58
-24.99
-22.51
-18.54
-15.95
-17.66
-25.06
-36.94
-49.79
-59.32
-62.32
-58.07
-48.57
-37.50
-28.35
-22.94
-20.83
-19.85
-17.65
-12.92
-5.50
4.18
15.69
28.44
40.95
50.34
52.82
45.46
28.53
6.68
-12.44
-21.80
-18.68
-6.54
6.95
14.31
12.02
2.41
-7.76
-11.19
-3.83
13.79
37.18
61.25
83.13
102.02
118.79
134.79
150.57
165.13
176.58
181.55
177.40
163.40
139.62
107.23
69.31
30.72
-3.31
-27.69
-40.73
-42.62
-34.98
-22.57
-12.45
-11.28
-23.27
-49.42
-86.50
-130.98
-178.07
-212.41
-220.04
-197.44
-154.28
-106.31
-74.54
-59.85
-59.17
-67.91
-80.81
-88.83
-86.95
-72.91
-47.39
-13.89
23.67
59.87
91.36
117.31
136.57
146.29
143.57
126.96
97.26
58.33
13.80
-32.31
-76.13
-115.21
-148.73
-176.46
-198.26
-214.35
-224.66
-229.94
-230.35
-225.27
-214.58
-199.64
-182.72
-166.05
-150.77
-136.16
-120.75
-103.17
-83.11
-61.86
-41.63
-24.18
-10.02
1.30
10.48
17.58
22.55
25.94
29.30
34.67
43.43
55.20
67.67
77.84
83.72
85.55
85.69
87.12
91.63
98.75
106.06
110.51
110.05
104.58
95.92
86.91
80.24
77.29
77.68
79.55
80.64
79.57
76.50
73.03
71.11
71.73
74.09
76.01
75.33
71.54
66.58
64.03
67.40
78.12
94.73
113.56
130.46
142.54
149.06
151.16
150.91
150.38
150.80
152.14
152.98
150.70
141.91
123.43
93.57
53.33
6.73
-40.13
-81.02
-111.48
-130.24
-138.95
-140.85
-138.92
-134.68
-128.06
-118.17
-104.34
-86.88
-67.26
-47.80
-31.19
-19.90
-15.64
-18.93
-28.83
-43.11
-58.95
-73.91
-86.41
-95.64
-100.90
-101.03
-94.49
-80.31
-59.23
-34.28
-9.99
9.33
21.50
27.36
30.08
33.27
38.96
46.42
52.68
54.22
48.85
36.89
20.95
4.64
-9.11
-19.19
-26.47
-32.80
-39.62
-46.74
-52.25
-53.37
-47.95
-35.79
-19.08
-1.52
13.23
23.03
27.97
29.86
31.15
33.79
38.74
45.94
54.54
63.03
69.18
70.18
63.30
46.95
21.71
-9.36
-41.42
-69.43
-89.85
-101.57
-105.80
-104.97
-101.43
-96.59
-90.78
-83.67
-74.88
-64.47
-52.90
-41.02
-29.76
-20.03
-12.67
-8.42
-7.70
-10.59
-16.54
-24.48
-32.95
-40.38
-45.46
-47.45
-46.36
-42.87
-37.91
-32.15
-25.51
-17.25
-6.36
7.62
24.03
41.04
56.21
67.39
73.53
74.85
72.53
68.07
62.70
57.21
52.09
47.74
44.55
42.66
41.70
40.74
38.55
34.18
27.57
19.78
12.72
8.43
8.22
12.22
19.30
27.52
34.89
39.92
41.97
41.18
38.22
33.91
28.97
23.88
18.91
14.21
9.95
6.34
3.60
1.78
0.68
-0.16
-1.29
-3.09
-5.43
-7.63
-8.75
-7.96
-5.04
-0.57
4.25
8.11
10.13
10.21
9.01
7.63
7.06
7.90
10.22
13.64
17.57
21.34
24.37
26.25
26.91
26.63
26.01
25.72
26.19
27.39
28.81
29.73
29.54
28.04
25.34
21.65
17.07
11.57
5.16
-1.84
-8.81
-15.11
-20.47
-25.10
-29.47
-33.78
-37.50
-39.43
-38.20
-33.13
-24.77
-14.90
-5.90
0.13
2.10
0.02
-5.11
-11.85
-18.66
-24.16
-27.23
-27.18
-23.83
-17.69
-9.77
-1.41
6.16
12.10
16.10
18.30
19.09
18.84
17.93
16.65
15.35
14.35
13.84
13.86
14.16
14.38
14.20
13.51
12.45
11.32
10.39
9.75
9.35
9.04
8.74
8.44
8.21
8.10
8.17
8.51
9.32
10.88
13.38
16.69
20.19
22.96
23.97
22.64
19.08
14.16
9.12
5.13
2.84
2.26
2.93
4.21
5.50
6.27
6.02
4.18
0.29
-5.69
-13.21
-21.05
-27.76
-32.16
-33.86
-33.38
-31.81
-30.33
-29.64
-29.67
-29.78
-29.19
-27.38
-24.29
-20.24
-15.84
-11.75
-8.45
-6.02
-4.26
-2.88
-1.73
-0.81
-0.22
0.00
-0.08
-0.26
0.01
1.04
2.54
3.62
3.27
0.94
-3.10
-7.82
-11.77
-12.96
-10.23
-4.27
2.57
7.41
8.29
4.78
-2.01
-10.02
-15.41
-15.33
-9.69
-1.17
6.59
11.07
11.37
7.93
1.69
-3.91
-6.12
-4.52
-0.94
2.70
5.91
9.29
13.78
20.56
35.12
63.60
109.39
170.62
240.85
310.87
370.57
411.19
407.00
346.01
239.84
119.40
13.67
-64.82
-117.86
-152.36
-173.70
-184.05
-181.33
-164.22
-136.15
-105.28
-79.89
-64.10
-56.97
-54.29
-51.25
-42.21
-25.54
-4.48
14.01
23.45
21.52
10.74
-3.35
-14.99
-19.14
-14.11
-2.07
12.62
26.54
39.14
52.05
66.96
83.79
100.99
115.49
123.54
121.75
108.07
81.82
43.24
-6.93
-66.90
-132.60
-197.36
-252.46
-289.51
-302.99
-292.26
-261.72
-219.13
-172.67
-128.93
-91.55
-61.53
-38.66
-22.92
-14.65
-13.62
-18.07
-24.62
-30.49
-34.01
-34.84
-33.42
-30.66
-27.15
-22.73
-16.57
-7.75
2.41
11.70
18.76
24.24
29.90
37.29
46.53
56.04
62.77
61.18
46.27
16.72
-24.37
-71.79
-120.52
-167.25
-210.39
-236.16
-234.33
-204.84
-158.48
-109.06
-65.92
-31.94
-6.12
14.16
31.10
43.59
48.70
43.13
28.47
7.13
-18.63
-46.58
-73.24
-93.86
-99.19
-86.52
-57.97
-19.55
20.06
52.71
73.69
83.72
86.94
87.06
85.07
80.70
73.94
65.56
58.47
54.68
56.23
63.23
73.45
82.93
88.63
89.86
87.71
84.45
82.32
84.14
91.54
104.61
121.41
138.67
152.34
158.32
153.90
133.27
96.42
47.02
-8.91
-64.92
-114.94
-153.61
-176.39
-179.80
-162.30
-124.46
-70.75
-8.99
51.48
102.25
137.69
155.36
155.42
139.43
110.31
71.28
25.95
-21.58
-66.96
-106.00
-135.20
-152.03
-155.18
-144.17
-120.00
-85.11
-43.04
2.19
47.04
88.96
126.32
157.69
181.08
193.52
191.62
172.92
136.89
85.37
22.07
-47.96
-118.86
-184.05
-236.52
-269.71
-278.86
-262.57
-223.57
-168.17
-104.41
-39.92
19.72
71.46
114.35
148.77
175.71
196.58
212.99
226.61
238.57
249.05
256.90
259.84
255.05
240.13
214.02
177.39
132.50
82.41
29.94
-23.56
-78.55
-136.48
-198.05
-261.47
-321.71
-371.23
-402.35
-409.84
-392.68
-354.20
-300.53
-238.45
-173.89
-111.50
-55.08
-8.16
26.16
45.73
50.17
41.43
23.39
0.85
-21.60
-40.14
-52.16
-56.01
-51.52
-40.47
-26.95
-16.94
-16.80
-31.00
-59.51
-96.94
-132.78
-155.81
-157.54
-134.47
-88.71
-27.42
38.94
99.15
143.80
169.40
178.16
177.86
179.77
195.06
230.19
284.17
349.10
412.45
463.31
493.39
498.68
479.72
440.81
387.69
326.31
262.72
191.80
117.26
48.69
-3.60
-35.07
-48.49
-51.81
-55.83
-65.69
-82.15
-100.86
-117.59
-130.71
-142.75
-154.83
-170.82
-194.67
-227.00
-267.47
-312.86
-359.46
-403.22
-439.40
-462.25
-466.73
-450.36
-412.19
-356.39
-288.75
-215.35
-140.30
-64.85
11.67
92.46
165.95
226.11
264.09
274.18
256.67
218.60
171.30
126.02
89.29
60.89
37.95
15.61
-8.40
-33.18
-56.32
-76.39
-94.19
-111.98
-131.55
-150.44
-164.44
-168.62
-160.10
-139.78
-111.86
-81.73
-53.61
-29.41
-7.73
13.00
33.55
53.05
69.30
79.71
82.13
75.53
60.00
37.36
10.12
-18.44
-44.73
-65.31
-77.77
-81.34
-77.10
-67.67
-55.67
-43.55
-32.86
-24.16
-17.15
-11.16
-5.73
-0.82
3.22
6.96
10.77
14.83
19.38
25.20
33.55
45.35
60.76
78.53
98.30
118.09
134.55
143.91
143.83
134.16
116.50
94.09
70.50
52.38
44.09
46.47
57.39
74.73
98.03
128.37
168.14
218.49
281.85
354.72
426.86
484.12
515.10
515.49
488.06
441.55
359.60
242.36
106.37
-23.95
-132.52
-215.92
-276.10
-322.04
-357.51
-382.83
-392.55
-383.33
-352.19
-302.44
-240.14
-171.35
-101.09
-32.01
33.52
95.34
150.19
191.74
213.30
213.27
197.08
174.71
157.12
151.16
159.81
180.10
204.86
225.49
235.69
232.53
215.68
186.87
148.54
104.66
58.93
14.11
-28.64
-69.33
-109.06
-149.82
-193.37
-240.21
-288.12
-332.29
-366.40
-384.54
-382.94
-361.36
-323.41
-275.26
-223.93
-175.39
-133.42
-99.36
-72.72
-51.94
-35.19
-20.96
-8.52
1.74
8.52
10.13
5.42
-5.35
-20.18
-35.93
-49.52
-59.27
-65.40
-69.45
-72.93
-76.15
-77.93
-76.37
-70.20
-59.70
-46.56
-33.00
-20.69
-10.44
-2.71
1.63
1.11
-5.79
-19.56
-38.85
-60.50
-80.49
-95.17
-102.21
-101.01
-92.48
-78.51
-61.54
-44.12
-28.51
-16.10
-7.02
-0.15
6.33
13.96
23.13
33.11
42.74
51.71
61.46
75.09
96.19
126.98
166.91
212.30
257.50
296.84
326.47
345.24
354.26
355.67
351.23
341.62
326.44
304.92
276.72
242.54
204.08
163.59
122.90
82.53
41.50
-2.23
-50.58
-104.14
-161.45
-218.89
-270.98
-311.08
-332.50
-330.13
-302.81
-255.28
-198.66
-148.38
-119.62
-121.65
-153.85
-205.38
-259.21
-298.73
-313.93
-304.47
-278.47
-248.42
-226.55
-221.30
-235.81
-268.02
-311.77
-358.25
-397.71
-421.59
-424.34
-404.77
-365.97
-313.89
-255.27
-195.75
-138.95
-86.60
-39.15
3.84
43.47
81.48
119.96
160.60
203.95
249.36
295.57
341.58
387.37
433.62
480.59
526.76
568.13
598.79
612.65
605.61
577.04
530.05
470.32
404.38
337.80
274.34
215.69
161.80
111.38
62.23
11.35
-44.81
-109.43
-183.81
-265.56
-347.83
-420.24
-471.91
-495.20
-488.62
-457.06
-409.60
-355.67
-301.79
-250.43
-200.91
-151.33
-100.06
-46.15
10.80
70.51
131.33
189.28
237.99
270.04
279.20
262.22
220.04
157.51
82.41
4.26
-66.83
-121.51
-152.78
-157.58
-137.72
-99.53
-52.00
-4.14
37.29
68.86
90.05
102.13
106.92
106.19
101.73
95.55
89.89
86.72
87.16
90.96
96.54
101.51
103.46
100.68
92.52
79.42
62.63
43.92
25.29
8.69
-4.26
-12.47
-15.58
-13.92
-8.47
-0.81
6.95
12.34
12.91
6.87
-6.25
-25.08
-46.53
-66.46
-80.86
-86.93
-83.83
-72.82
-56.70
-39.02
-23.05
-11.14
-4.20
-1.75
-2.20
-3.47
-3.61
-1.33
3.65
10.74
18.63
25.80
30.83
32.73
31.15
26.33
19.09
10.55
1.89
-5.92
-12.21
-16.63
-19.01
-19.26
-17.41
-13.66
-8.47
-2.59
3.07
7.61
10.31
10.80
8.98
5.01
-0.76
-7.71
-14.86
-20.87
-24.24
-23.61
-18.36
-8.86
3.37
16.13
27.04
34.32
37.16
35.82
31.44
25.60
19.84
15.37
12.84
12.29
13.28
15.05
16.81
17.85
17.75
16.41
14.00
10.89
7.52
4.34
1.74
0.00
-0.74
-0.58
0.19
1.13
1.76
1.70
0.64
-1.63
-5.24
-10.17
-16.11
-22.33
-27.73
-31.10
-31.54
-28.83
-23.65
-17.42
-11.94
-8.99
-9.96
-15.66
-26.13
-40.46
-56.68
-71.85
-82.50
-85.50
-78.99
-63.16
-40.20
-13.65
12.93
37.16
58.53
78.28
98.61
121.63
148.48
178.93
211.50
243.93
273.95
299.70
320.06
334.34
341.91
341.71
332.34
312.54
282.00
241.90
194.96
144.71
94.20
45.37
-1.38
-46.61
-91.09
-135.41
-180.23
-226.92
-277.53
-333.75
-394.97
-456.61
-510.11
-545.14
-553.30
-531.50
-483.27
-417.27
-343.62
-270.44
-201.74
-137.65
-76.26
-15.36
46.90
112.38
183.27
261.21
345.44
431.06
509.13
569.13
602.66
607.05
586.39
549.63
506.72
464.86
426.72
391.16
355.58
318.26
279.41
240.57
203.28
167.86
133.14
97.20
58.39
16.19
-28.19
-72.43
-114.13
-151.72
-185.25
-216.32
-247.33
-280.62
-317.92
-360.44
-408.91
-463.20
-521.44
-579.10
-629.15
-663.46
-675.50
-662.69
-627.43
-575.98
-515.93
-453.35
-391.17
-329.40
-267.00
-204.07
-143.15
-88.87
-46.23
-18.59
-6.48
-7.98
-20.06
-39.82
-65.07
-93.26
-120.24
-139.86
-145.16
-130.96
-96.51
-46.60
9.66
61.87
101.94
126.48
137.21
139.64
140.37
144.45
153.67
166.37
178.82
187.44
190.73
189.91
188.09
188.36
192.14
198.45
204.41
206.54
202.26
190.76
173.23
152.57
132.58
117.01
108.31
106.57
108.96
110.14
103.43
82.61
43.66
-13.72
-85.36
-162.95
-235.46
-291.77
-323.66
-327.97
-307.16
-267.82
-217.82
-163.66
-109.00
-54.71
-0.02
56.29
114.90
175.43
235.83
292.31
339.50
371.59
384.00
374.85
345.01
297.14
234.65
161.42
82.90
7.17
-55.31
-93.95
-101.50
-76.86
-25.83
40.78
110.29
171.47
216.35
240.70
243.55
226.16
190.94
140.66
77.98
6.04
-70.32
-143.60
-203.84
-240.63
-246.47
-219.51
-164.66
-92.35
-15.80
52.39
102.53
129.17
131.16
110.72
72.08
19.90
-41.80
-109.66
-179.92
-247.26
-304.45
-343.71
-359.63
-351.40
-323.38
-283.37
-239.39
-196.93
-157.96
-121.78
-86.97
-52.88
-19.65
12.56
44.67
78.80
117.28
161.14
208.78
255.63
294.92
319.49
323.88
306.10
268.60
218.01
163.48
114.22
76.74
52.78
38.99
28.16
11.66
-17.89
-64.52
-127.71
-202.17
-278.70
-345.89
-392.88
-412.47
-403.42
-370.93
-324.67
-275.01
-229.16
-189.15
-152.26
-113.56
-69.00
-17.55
38.34
93.79
143.22
182.11
208.30
222.52
227.83
228.33
227.19
225.14
220.16
208.32
185.52
148.93
97.91
34.30
-37.44
-110.41
-175.85
-224.68
-249.78
-247.93
-220.62
-173.10
-112.52
-46.12
19.59
78.66
125.47
155.24
165.29
156.29
132.32
99.50
63.98
30.27
0.89
-22.83
-40.02
-49.70
-51.12
-44.37
-30.70
-12.28
8.48
29.52
49.40
67.31
82.97
96.55
108.44
119.12
128.78
136.91
142.04
141.86
133.46
113.83
80.64
33.28
-25.97
-91.24
-153.61
-202.88
-230.35
-231.31
-206.15
-159.77
-99.74
-34.22
29.42
85.12
128.22
155.68
166.75
163.46
150.40
133.56
118.51
108.63
104.42
103.79
103.04
98.04
85.24
62.44
29.37
-11.95
-57.31
-101.21
-138.16
-164.12
-177.36
-178.29
-168.67
-150.42
-125.00
-93.52
-57.41
-19.06
18.03
50.01
73.73
87.73
92.56
90.29
83.65
75.12
66.37
58.11
50.34
42.54
33.99
23.83
11.28
-4.19
-22.40
-42.15
-61.11
-76.19
-84.31
-83.30
-72.67
-53.83
-29.80
-4.49
18.13
34.72
43.16
42.80
34.46
20.24
2.93
-14.58
-30.06
-42.26
-51.12
-57.46
-62.56
-67.57
-73.09
-78.81
-83.62
-86.02
-84.83
-79.80
-72.00
-63.50
-56.59
-52.69
-51.56
-51.26
-48.86
-41.62
-28.13
-8.81
14.37
38.77
62.00
82.61
100.17
114.88
127.10
136.94
144.28
148.84
150.43
149.01
144.71
137.79
128.63
117.75
105.78
93.31
80.82
68.62
56.95
46.15
36.76
29.41
24.59
22.41
22.51
24.30
27.30
31.36
36.61
43.08
50.37
57.40
62.71
65.06
64.20
61.18
58.08
56.91
58.47
61.43
62.45
57.11
41.36
12.77
-28.77
-80.99
-139.49
-198.16
-249.79
-287.10
-304.25
-298.42
-270.80
-226.35
-172.32
-116.03
-63.07
-16.57
22.30
53.25
75.99
90.04
95.10
91.62
81.02
65.42
47.12
28.06
9.65
-7.09
-21.19
-31.66
-37.47
-38.01
-33.40
-24.61
-13.23
-0.83
11.61
24.06
37.34
52.57
70.51
90.97
112.66
133.22
149.54
158.05
155.12
137.80
104.83
57.92
2.34
-53.49
-99.84
-128.37
-134.63
-119.41
-88.12
-48.86
-10.00
21.75
42.13
49.25
43.25
26.12
1.69
-24.60
-46.57
-58.84
-58.59
-46.66
-27.45
-7.70
5.66
7.55
-3.84
-26.79
-56.75
-87.75
-113.89
-130.62
-135.50
-128.29
-110.70
-85.72
-56.97
-28.04
-1.97
19.08
34.03
42.91
46.62
46.57
44.21
40.71
36.78
32.77
28.88
25.37
22.60
20.92
20.51
21.21
22.61
24.20
25.64
26.87
28.01
29.19
30.26
30.73
29.89
27.16
22.49
16.54
10.60
6.13
4.25
5.18
8.14
11.50
13.39
12.40
8.20
1.83
-4.52
-8.23
-7.18
-0.59
10.37
22.77
32.47
35.19
27.62
8.34
-21.57
-58.61
-97.52
-132.46
-158.49
-172.83
-175.45
-168.72
-156.29
-141.63
-126.88
-112.53
-97.94
-82.25
-65.19
-47.35
-29.76
-13.27
1.89
16.15
30.16
44.18
57.78
69.89
79.12
84.27
84.54
79.70
70.14
56.87
41.58
26.45
13.87
5.82
3.43
6.58
14.08
24.06
34.50
43.81
50.98
55.72
58.27
59.23
59.39
59.47
59.94
60.78
61.36
60.48
56.71
48.81
36.29
19.80
1.19
-16.86
-31.48
-40.40
-42.57
-38.43
-29.66
-18.60
-7.61
1.55
8.00
11.65
12.96
12.58
11.12
9.08
6.83
4.69
2.92
1.76
1.30
1.44
1.95
2.49
2.77
2.72
2.39
1.98
1.59
1.09
0.13
-1.77
-4.85
-8.94
-13.33
-17.04
-19.19
-19.35
-17.66
-14.76
-11.40
-8.16
-5.26
-2.55
0.33
3.70
7.67
12.08
16.45
20.21
22.83
24.05
23.89
22.64
20.67
18.28
15.63
12.71
9.55
6.28
3.17
0.57
-1.26
-2.23
-2.45
-2.16
-1.63
-1.05
-0.46
0.19
1.01
1.94
2.75
3.05
2.45
0.83
-1.56
-4.16
-6.32
-7.60
-7.96
-7.78
-7.58
-7.80
-8.51
-9.49
-10.31
-10.68
-10.48
-9.87
-9.12
-8.42
-7.87
-7.37
-6.78
-5.97
-4.85
-3.43
-1.76
0.04
1.78
3.22
4.14
4.41
4.10
3.44
2.77
2.41
2.48
2.88
3.33
3.51
3.19
2.30
0.90
-0.92
-3.01
-5.29
-7.69
-10.13
-12.46
-14.51
-16.12
-17.16
-17.61
-17.47
-16.73
-15.35
-13.28
-10.55
-7.38
-4.21
-1.59
0.07
0.65
0.41
-0.13
-0.38
0.01
1.11
2.72
4.50
6.16
7.50
8.46
9.04
9.29
9.27
9.06
8.74
8.37
7.98
7.58
7.14
6.63
6.04
5.37
4.69
4.09
3.66
3.43
3.39
3.47
3.50
3.36
2.89
2.04
0.89
-0.34
-1.28
-1.58
-1.03
0.33
2.13
3.85
4.99
5.30
4.89
4.24
3.95
4.66
6.88
10.82
16.28
22.59
28.70
33.62
36.80
38.36
39.20
40.70
44.21
50.62
60.01
71.84
85.16
98.60
110.04
116.49
114.53
101.15
74.62
34.91
-16.52
-77.08
-143.11
-209.97
-271.19
-318.62
-344.21
-342.72
-313.98
-263.01
-197.64
-125.05
-50.51
23.29
94.61
160.54
216.33
256.88
279.43
285.42
279.58
265.76
245.91
220.54
190.19
156.47
121.85
88.30
56.31
24.57
-11.37
-54.71
-104.77
-156.74
-204.63
-244.63
-276.92
-304.47
-321.88
-325.88
-317.37
-301.86
-284.20
-264.10
-236.79
-197.23
-147.74
-89.95
-32.31
14.22
41.27
46.86
35.60
16.48
-3.95
-18.32
-21.88
-16.07
-5.46
5.38
14.16
20.79
25.97
30.04
33.00
34.52
33.06
28.05
20.50
12.83
7.67
6.77
10.56
18.73
30.29
43.03
54.96
65.20
74.23
83.35
93.72
105.56
118.17
130.10
139.66
146.21
150.55
154.52
159.91
167.49
176.75
186.40
195.18
202.48
208.49
213.98
219.70
225.96
232.53
238.90
244.52
249.05
252.48
255.27
258.25
262.10
266.66
270.30
269.85
261.47
242.14
211.04
170.14
123.42
75.36
29.27
-13.60
-53.70
-92.36
-130.91
-170.31
-211.28
-254.12
-298.25
-341.63
-380.68
-411.19
-429.91
-435.86
-430.71
-417.92
-401.20
-383.38
-366.05
-350.18
-336.72
-326.76
-320.94
-318.58
-317.48
-314.46
-306.46
-291.65
-269.80
-242.23
-211.27
-179.61
-149.71
-123.42
-101.76
-84.79
-71.69
-61.12
-51.65
-42.14
-31.82
-20.05
-6.34
9.52
27.40
46.76
66.71
86.10
103.84
119.07
131.97
143.00
152.38
159.84
164.86
167.00
166.16
162.57
156.75
150.60
145.76
143.07
142.36
143.27
145.68
149.70
155.12
161.09
168.28
176.76
185.71
193.58
199.11
202.13
203.31
203.44
202.91
204.27
209.22
217.78
228.27
238.81
248.54
257.68
266.72
259.01
224.24
162.79
86.90
12.21
-50.58
-97.59
-129.70
-150.34
-163.64
-170.42
-170.78
-165.08
-154.82
-142.16
-129.16
-117.54
-108.76
-103.64
-100.10
-95.79
-89.14
-80.41
-71.02
-62.50
-56.11
-52.65
-52.24
-52.95
-52.73
-50.14
-45.03
-38.29
-31.18
-24.23
-18.48
-14.62
-12.19
-10.70
-9.76
-9.27
-9.19
-9.28
-9.19
-8.89
-8.77
-9.99
-13.39
-19.39
-27.87
-38.03
-48.43
-57.41
-63.63
-66.42
-63.59
-56.94
-48.93
-41.61
-35.93
-31.59
-27.49
-22.47
-16.16
-9.28
-3.73
-1.16
-2.29
-6.31
-11.08
-14.10
-13.55
-9.24
-2.69
3.19
5.72
3.17
-4.67
-16.48
-30.06
-41.52
-46.58
-41.25
-23.28
6.53
43.10
78.36
102.99
109.88
96.98
68.02
30.95
-5.66
-36.14
-59.64
-78.15
-93.99
-107.04
-113.70
-108.90
-89.37
-56.49
-15.12
23.06
48.89
59.31
57.61
50.89
45.86
45.55
48.75
51.77
50.98
45.82
38.37
31.81
28.86
30.41
35.41
41.52
46.59
49.26
49.91
50.07
50.09
49.70
47.90
43.64
36.61
27.46
17.19
6.78
-3.88
-15.92
-30.40
-47.24
-64.45
-78.45
-85.31
-82.62
-70.33
-51.25
-30.33
-12.90
-3.08
-2.55
-10.18
-22.84
-36.80
-48.96
-57.69
-63.01
-65.91
-67.82
-70.29
-74.93
-82.86
-95.22
-112.17
-132.41
-152.59
-167.89
-173.38
-165.88
-145.16
-113.85
-76.21
-36.52
1.98
37.66
70.04
98.99
124.16
145.01
161.40
174.18
185.27
196.76
210.74
228.73
251.36
278.05
307.26
336.95
364.99
389.28
406.59
414.60
412.82
402.51
385.58
363.61
337.76
309.02
277.91
242.09
200.47
154.75
109.05
67.45
31.93
2.48
-22.03
-44.01
-70.18
-104.87
-147.52
-193.33
-237.03
-276.07
-310.10
-339.93
-367.75
-400.92
-443.61
-494.04
-545.44
-590.85
-627.02
-653.45
-671.30
-643.91
-552.64
-408.76
-247.78
-102.26
13.65
99.46
154.32
188.84
208.48
210.01
191.35
154.87
106.19
55.71
8.04
-25.48
-37.89
-30.09
-13.18
2.00
10.86
15.58
20.75
28.75
39.93
52.52
63.23
67.20
62.57
51.37
38.49
28.67
23.89
23.91
26.37
27.86
24.80
16.11
3.46
-9.58
-19.76
-25.72
-27.82
-28.08
-29.05
-33.02
-41.08
-53.17
-68.22
-83.96
-97.03
-102.93
-97.69
-79.76
-51.32
-18.12
12.41
34.09
44.50
45.15
40.13
33.57
27.87
23.39
19.59
16.38
14.70
16.28
22.13
31.89
44.01
56.39
67.09
75.26
81.17
84.95
88.04
91.08
93.88
95.65
95.47
92.78
87.73
81.16
74.28
68.30
63.75
60.49
58.01
55.60
52.71
49.14
45.11
41.01
37.31
34.41
31.86
29.23
26.10
22.44
17.89
12.53
6.62
0.59
-5.29
-10.84
-15.88
-20.33
-24.17
-27.38
-29.87
-31.49
-32.05
-31.42
-29.57
-26.58
-22.64
-18.09
-13.31
-8.57
-3.95
0.64
5.37
10.37
15.66
21.03
26.13
30.61
34.21
37.04
39.57
42.45
46.24
51.25
57.33
64.06
70.94
77.36
83.11
88.40
93.78
100.03
108.08
118.58
131.55
145.97
159.23
168.07
169.62
162.50
147.51
127.43
106.05
86.93
72.35
62.20
54.99
48.64
41.45
32.68
22.41
10.85
-2.47
-15.51
-28.43
-42.51
-59.01
-78.19
-98.91
-118.83
-136.01
-149.45
-159.53
-168.64
-179.93
-195.56
-216.07
-240.80
-268.66
-299.41
-332.21
-363.87
-389.24
-402.07
-396.06
-367.26
-315.98
-246.21
-165.06
-79.01
7.79
91.56
166.17
224.45
259.77
268.16
250.95
213.17
163.52
116.37
86.34
79.04
89.72
107.92
118.54
120.43
114.98
103.21
84.73
61.53
31.02
-7.44
-51.60
-97.42
-140.68
-180.41
-217.84
-255.25
-294.96
-340.34
-388.49
-430.15
-453.33
-448.41
-413.40
-353.74
-279.85
-189.18
-93.99
-10.56
50.72
90.08
113.98
129.82
143.17
156.65
171.53
186.02
200.90
216.10
233.50
254.54
279.75
309.31
343.56
382.83
424.63
466.01
502.93
530.16
541.51
532.06
500.45
449.84
386.79
317.63
247.77
180.32
116.10
54.47
-4.30
-57.61
-100.87
-129.65
-143.06
-144.87
-142.66
-145.07
-158.85
-186.03
-223.60
-265.30
-304.33
-335.93
-358.54
-371.08
-370.61
-352.15
-311.08
-246.84
-165.94
-81.56
-10.15
32.64
40.58
20.53
-10.75
-34.67
-39.13
-22.10
10.45
49.00
82.34
104.06
113.52
112.92
103.60
84.60
54.83
16.06
-27.76
-76.45
-130.77
-191.19
-256.45
-323.32
-386.38
-437.68
-467.54
-445.88
-361.54
-231.75
-93.97
19.19
95.28
138.92
162.26
178.04
194.89
211.48
224.54
233.12
239.30
244.87
248.88
242.42
221.19
186.61
142.87
97.44
57.55
28.17
10.58
2.60
-0.65
-0.68
1.36
2.94
3.20
2.57
3.10
7.06
15.95
31.17
55.13
90.93
138.45
194.93
252.39
299.64
325.97
325.31
299.53
257.28
209.91
165.06
132.56
117.16
116.41
123.94
131.01
137.72
146.18
156.29
164.83
170.72
170.76
163.22
149.21
132.24
116.72
105.04
97.27
91.82
86.90
79.99
69.72
56.56
42.23
28.92
17.33
6.97
-3.19
-13.79
-25.71
-39.17
-53.55
-67.88
-81.21
-93.53
-105.30
-116.94
-128.42
-139.82
-151.21
-162.60
-174.16
-186.08
-198.67
-212.13
-226.56
-242.30
-260.24
-281.17
-304.62
-328.06
-347.06
-356.81
-354.35
-340.26
-318.82
-296.19
-277.47
-264.83
-257.64
-254.34
-254.35
-258.41
-266.58
-275.90
-279.50
-268.66
-237.09
-184.77
-118.91
-51.34
6.20
46.20
66.38
67.98
53.04
23.19
-19.26
-69.13
-117.26
-152.02
-162.93
-144.36
-97.68
-30.55
45.74
119.44
180.38
220.94
236.44
225.66
191.48
141.06
84.68
33.16
-5.09
-26.16
-30.79
-22.42
-4.76
19.97
50.81
86.49
123.82
157.47
181.40
191.12
185.39
166.11
136.88
100.93
60.69
18.43
-22.41
-56.75
-79.12
-86.06
-78.04
-59.62
-37.71
-18.76
-6.73
-2.41
-4.49
-11.40
-22.39
-37.52
-56.70
-78.46
-99.61
-116.05
-124.38
-123.36
-114.42
-100.75
-85.44
-69.81
-52.98
-32.71
-7.27
23.25
56.53
88.58
115.02
131.76
135.79
125.75
102.60
70.16
34.83
4.32
-14.33
-17.12
-4.33
19.82
48.85
76.27
97.07
108.44
109.52
101.20
85.51
65.25
43.63
23.51
6.72
-6.38
-16.58
-24.84
-31.21
-34.15
-30.97
-19.38
0.65
26.02
51.19
70.22
78.91
75.92
62.43
40.82
13.60
-16.89
-47.82
-75.38
-94.84
-101.96
-94.78
-74.59
-45.88
-14.82
12.45
31.41
39.51
36.00
21.97
0.30
-24.37
-46.33
-60.29
-63.24
-55.63
-41.41
-26.07
-14.03
-6.52
-0.85
7.79
23.69
48.02
78.31
109.68
137.02
156.47
165.34
161.44
142.76
108.58
61.29
7.76
-41.37
-74.88
-84.97
-70.22
-35.77
8.59
51.66
83.60
97.62
90.77
64.36
23.73
-22.78
-65.90
-98.17
-115.88
-119.68
-113.35
-101.83
-89.49
-79.43
-73.26
-71.32
-72.40
-73.64
-71.00
-60.90
-41.85
-15.52
13.73
40.41
59.93
69.84
70.15
62.57
49.97
35.78
23.82
17.82
20.73
33.69
55.32
82.04
109.20
132.60
149.64
159.53
162.63
159.46
150.01
133.65
109.89
79.35
44.53
9.63
-20.27
-40.63
-48.78
-44.92
-32.43
-17.07
-5.46
-2.87
-11.25
-28.19
-47.48
-61.49
-63.94
-52.39
-28.65
2.13
33.50
59.38
74.94
76.97
64.12
37.71
2.28
-34.88
-65.45
-82.71
-83.50
-69.07
-43.86
-13.76
15.52
39.09
52.97
54.12
41.38
16.45
-15.68
-47.63
-71.88
-83.43
-81.75
-70.75
-56.85
-46.18
-42.26
-45.24
-52.64
-61.01
-67.39
-70.06
-68.22
-61.42
-49.16
-31.11
-7.54
20.22
49.65
77.38
99.87
114.10
118.07
111.08
94.10
69.83
42.45
16.86
-2.33
-11.87
-10.46
0.93
19.24
39.89
57.77
68.45
69.39
60.60
44.41
24.41
4.00
-14.76
-31.30
-46.20
-60.20
-73.36
-84.93
-93.97
-100.16
-104.25
-108.02
-113.35
-121.20
-130.74
-139.30
-143.18
-138.82
-124.26
-99.98
-68.92
-35.59
-4.75
19.74
35.63
42.19
39.86
30.09
15.14
-1.58
-15.75
-22.88
-19.55
-4.83
19.10
47.15
72.69
89.55
93.86
84.95
65.09
38.41
9.46
-17.94
-41.10
-58.46
-69.24
-73.08
-70.41
-62.74
-52.90
-44.48
-40.73
-43.31
-51.66
-63.39
-75.62
-86.23
-94.14
-98.55
-97.94
-89.57
-70.29
-38.45
4.37
52.80
99.00
134.95
154.92
156.72
141.84
114.46
80.44
46.31
18.44
1.89
-0.65
10.28
30.92
55.53
78.18
94.62
102.76
102.36
94.13
79.28
59.71
38.64
20.45
9.45
7.99
15.04
26.51
37.18
43.34
44.44
42.95
42.24
44.51
49.56
55.22
58.76
58.43
53.84
45.87
36.22
27.32
22.17
23.80
34.22
53.16
77.67
102.85
123.75
137.02
141.62
138.39
128.80
114.09
95.21
73.45
51.04
31.13
16.98
11.02
14.01
24.91
41.08
59.02
74.79
84.63
85.57
75.85
55.28
25.51
-10.22
-47.29
-80.39
-104.48
-116.14
-114.78
-103.23
-87.33
-74.08
-69.31
-75.54
-91.17
-111.31
-129.89
-142.07
-145.56
-140.66
-128.97
-112.15
-91.28
-67.27
-41.67
-17.16
2.84
15.31
18.72
13.27
0.30
-18.60
-42.18
-69.15
-97.01
-121.46
-136.75
-137.58
-121.50
-90.54
-50.83
-10.44
23.63
47.50
60.67
64.52
60.56
49.32
30.84
5.90
-22.97
-51.59
-75.24
-90.22
-94.81
-89.43
-76.20
-58.36
-39.98
-25.50
-18.67
-21.19
-31.54
-44.61
-53.15
-50.07
-30.93
4.27
50.80
100.46
143.71
172.20
180.55
167.35
135.26
90.39
41.08
-3.67
-35.63
-49.09
-42.09
-16.95
20.05
60.17
94.48
116.01
121.46
111.65
90.70
64.43
38.56
17.29
2.61
-5.52
-8.55
-8.36
-6.73
-5.08
-4.41
-5.39
-8.45
-13.71
-21.03
-29.81
-38.87
-46.53
-50.82
-49.77
-42.16
-28.03
-8.86
12.69
33.45
50.30
60.49
61.71
52.34
32.06
2.62
-31.71
-64.72
-89.89
-102.13
-99.20
-82.04
-54.42
-21.90
9.25
33.22
45.84
45.62
34.30
16.42
-2.18
-16.43
-23.65
-24.16
-20.50
-16.03
-13.43
-14.07
-17.85
-23.59
-29.45
-33.53
-34.46
-31.99
-27.12
-21.73
-17.63
-15.58
-14.68
-12.54
-6.33
5.82
23.90
45.89
68.38
87.56
100.04
103.29
96.06
78.72
53.61
25.12
-1.08
-19.58
-26.90
-22.57
-8.99
9.63
28.95
45.51
57.18
62.98
62.70
56.85
46.70
34.23
21.77
11.33
3.98
-0.34
-2.58
-4.07
-5.74
-7.85
-9.96
-11.43
-12.08
-12.59
-14.51
-19.63
-28.88
-41.11
-52.70
-58.47
-53.51
-35.52
-6.37
27.95
59.17
79.53
84.39
73.55
50.79
22.08
-6.43
-30.02
-45.87
-52.71
-50.20
-38.72
-19.59
4.56
29.94
52.45
68.92
78.00
80.44
78.31
73.65
67.41
59.13
47.67
32.36
14.13
-4.40
-19.92
-29.91
-33.82
-33.18
-30.78
-29.42
-30.82
-35.27
-41.85
-48.80
-53.95
-55.04
-50.04
-37.86
-19.08
3.78
26.82
46.01
58.56
63.47
61.09
52.19
37.26
16.70
-8.24
-34.92
-59.29
-77.10
-85.16
-82.71
-71.54
-55.27
-38.10
-23.53
-13.65
-8.89
-8.30
-10.16
-12.65
-14.35
-14.54
-13.08
-10.28
-6.75
-3.20
-0.44
0.85
0.28
-1.85
-4.71
-7.46
-9.78
-12.33
-16.36
-22.58
-30.14
-36.17
-36.70
-28.53
-11.11
12.67
37.12
55.97
64.75
62.34
51.00
34.85
17.93
2.66
-10.37
-21.57
-31.04
-37.75
-39.70
-35.06
-23.52
-7.05
10.53
24.93
33.00
33.86
28.83
20.56
11.90
5.01
0.99
-0.15
0.83
2.61
3.49
1.71
-4.05
-14.11
-27.40
-41.70
-54.42
-63.68
-69.06
-71.57
-72.77
-73.58
-73.26
-69.33
-58.61
-38.81
-10.06
24.66
60.13
90.44
110.64
117.82
111.34
92.58
64.46
31.11
-2.33
-30.32
-47.77
-51.36
-40.70
-18.59
9.55
37.24
58.56
69.70
69.59
59.75
43.46
24.60
6.61
-8.36
-19.54
-27.28
-32.42
-35.64
-37.12
-36.58
-33.94
-29.84
-25.94
-24.40
-27.06
-34.27
-44.33
-53.55
-57.37
-51.98
-35.76
-10.03
21.25
52.58
78.36
94.24
98.02
89.92
72.28
49.09
24.87
3.61
-12.16
-21.96
-27.13
-30.00
-32.90
-37.26
-43.25
-50.15
-57.06
-63.48
-69.51
-75.64
-82.19
-89.02
-95.58
-101.15
-105.33
-108.01
-109.11
-108.33
-105.04
-98.71
-89.18
-76.83
-62.19
-45.62
-27.08
-6.57
15.23
36.68
55.60
70.18
79.75
84.90
86.82
86.59
84.62
80.99
76.08
70.79
66.26
63.29
61.88
61.29
60.59
59.05
56.46
53.01
49.22
45.79
43.39
42.26
41.84
40.74
37.20
30.03
19.50
7.41
-3.69
-11.56
-15.21
-14.77
-10.77
-3.48
7.14
20.77
36.09
50.71
61.96
67.98
68.34
63.76
55.13
42.70
26.04
4.91
-19.57
-44.43
-65.30
-77.86
-79.47
-69.90
-51.36
-27.64
-3.03
18.48
33.75
40.82
39.13
29.66
14.77
-2.33
-18.39
-30.83
-38.31
-40.86
-39.79
-37.16
-35.13
-34.99
-36.45
-37.44
-35.00
-26.61
-11.62
8.11
28.85
46.28
57.03
59.28
52.80
38.44
17.67
-7.39
-33.91
-58.33
-76.90
-86.67
-86.44
-77.23
-62.04
-44.85
-29.42
-18.39
-12.86
-12.63
-16.77
-24.07
-33.16
-42.34
-49.46
-52.18
-48.67
-38.41
-22.62
-4.08
13.67
27.43
35.29
37.29
35.40
33.02
34.10
41.70
56.96
78.56
102.98
125.66
142.25
149.67
146.36
132.22
108.40
77.58
44.12
13.63
-8.30
-17.97
-15.09
-3.18
11.66
22.84
25.38
17.32
-0.27
-24.08
-49.77
-73.16
-91.17
-102.33
-107.07
-107.38
-105.90
-104.73
-104.32
-103.50
-100.39
-93.84
-84.44
-74.49
-66.86
-63.31
-63.42
-64.68
-63.73
-58.01
-46.87
-31.76
-15.49
-0.96
9.77
15.92
17.81
16.41
12.98
8.95
5.98
5.95
10.89
22.31
40.35
63.21
87.10
107.15
118.82
119.33
108.68
89.53
66.31
43.76
25.52
13.23
6.61
3.97
3.28
2.99
2.29
0.93
-1.43
-5.44
-11.98
-21.39
-32.74
-43.56
-50.45
-50.40
-42.00
-26.16
-5.98
14.20
29.75
36.96
33.89
20.89
0.47
-23.22
-45.37
-61.67
-69.21
-67.12
-56.73
-41.04
-23.94
-9.23
0.44
3.95
1.97
-3.44
-9.73
-14.73
-17.40
-18.02
-17.96
-18.88
-21.96
-27.34
-33.98
-40.13
-44.15
-45.23
-43.66
-40.35
-35.82
-29.43
-19.42
-3.76
18.32
45.33
73.55
98.14
114.85
121.43
118.05
106.70
90.29
71.88
54.31
40.10
31.20
28.65
32.18
39.99
49.21
56.79
60.39
58.86
52.33
41.78
28.71
14.80
1.68
-9.18
-16.95
-21.76
-24.67
-27.21
-30.68
-35.56
-41.40
-47.29
-52.36
-56.16
-58.54
-59.06
-56.48
-48.90
-34.61
-13.24
13.32
41.22
65.72
82.80
90.48
89.24
81.42
70.16
58.37
47.95
39.86
34.42
31.82
32.28
35.75
41.53
48.07
53.21
54.95
52.20
45.26
35.65
25.36
15.99
8.10
1.08
-6.34
-15.44
-26.71
-39.49
-51.99
-61.77
-66.75
-66.05
-60.48
-52.21
-43.96
-37.97
-35.46
-36.69
-41.48
-49.46
-59.53
-69.32
-74.90
-71.80
-56.95
-30.55
3.31
37.75
65.60
81.87
84.92
76.21
58.89
36.47
12.27
-10.50
-28.55
-38.81
-39.34
-30.18
-13.63
6.49
26.05
41.73
51.57
54.89
51.87
43.43
31.22
17.55
5.09
-3.95
-8.66
-9.68
-8.70
-7.55
-7.40
-8.39
-10.09
-12.05
-14.16
-16.80
-20.62
-26.31
-34.55
-45.64
-58.99
-72.57
-82.71
-85.05
-76.13
-55.17
-24.82
9.50
41.38
65.23
77.64
77.62
66.19
45.90
20.47
-5.66
-27.89
-42.39
-47.19
-42.77
-31.92
-18.98
-8.61
-4.58
-8.81
-20.96
-38.44
-57.25
-73.47
-84.73
-91.19
-95.31
-100.48
-109.19
-121.65
-135.61
-147.46
-154.17
-154.77
-150.89
-145.78
-142.67
-143.05
-145.94
-148.11
-145.64
-135.66
-117.68
-93.77
-67.81
-44.09
-25.93
-14.80
-10.23
-10.42
-13.16
-16.44
-18.87
-19.47
-17.34
-11.41
-0.56
16.04
38.32
64.98
93.65
121.37
145.40
164.21
177.81
187.49
194.83
200.75
204.92
206.05
202.81
194.87
183.56
171.30
160.49
152.37
146.44
141.09
134.85
127.43
119.91
114.06
111.12
111.06
112.73
114.52
114.94
112.75
106.74
95.41
77.32
51.79
19.92
-15.05
-48.27
-74.54
-90.06
-93.53
-86.49
-72.69
-56.92
-43.79
-36.82
-37.76
-46.29
-60.21
-75.99
-89.69
-98.11
-99.59
-94.45
-84.73
-73.72
-64.91
-61.04
-63.16
-69.86
-77.26
-79.95
-72.80
-52.96
-21.37
17.25
55.71
86.71
105.05
108.77
99.08
79.31
53.77
26.87
2.68
-15.38
-24.91
-24.93
-16.26
-1.44
15.90
31.88
43.37
48.64
47.48
40.88
30.35
17.44
3.50
-10.26
-22.77
-33.10
-40.67
-45.53
-48.37
-50.40
-53.03
-57.48
-64.28
-72.90
-81.57
-87.39
-87.11
-78.25
-60.24
-35.12
-7.23
18.10
36.21
44.41
42.55
32.55
17.44
0.52
-15.35
-27.91
-35.65
-37.77
-34.20
-25.51
-12.79
2.45
18.33
32.74
43.57
49.22
49.13
44.12
36.22
28.05
21.93
18.99
18.92
20.30
21.35
20.84
18.55
15.08
11.38
7.92
4.52
0.77
-3.17
-5.87
-4.87
2.21
16.19
35.45
56.17
73.73
84.34
86.12
79.18
65.05
45.82
23.85
1.76
-17.59
-31.31
-37.17
-34.09
-22.69
-5.15
15.22
34.60
49.38
56.76
55.30
45.40
29.15
9.86
-8.84
-24.06
-34.15
-38.99
-39.81
-38.64
-37.85
-39.42
-44.47
-52.87
-63.07
-72.26
-76.95
-74.00
-61.63
-40.38
-13.22
14.99
38.84
53.71
56.91
48.35
30.35
7.03
-16.80
-36.78
-49.99
-55.44
-54.03
-47.78
-38.99
-29.21
-19.02
-8.36
2.96
14.60
25.68
35.07
41.79
45.19
44.73
39.70
29.27
13.15
-7.77
-30.99
-53.05
-70.85
-82.87
-89.58
-92.54
-92.96
-90.41
-83.10
-69.20
-48.63
-24.07
-0.46
16.69
23.38
18.48
3.88
-16.51
-38.15
-57.31
-71.78
-80.91
-85.03
-84.69
-80.11
-71.06
-57.36
-39.59
-19.52
-0.02
15.80
25.76
29.50
28.46
25.02
21.18
17.64
13.78
8.26
0.18
-10.25
-21.63
-31.84
-38.74
-40.66
-36.47
-25.69
-8.80
12.56
35.50
56.51
72.40
81.20
82.51
77.14
66.37
51.34
33.22
13.54
-5.41
-20.79
-29.91
-31.11
-24.22
-10.67
6.68
24.08
37.51
43.54
40.41
28.77
11.68
-6.39
-21.25
-30.43
-33.75
-32.99
-30.82
-29.67
-31.11
-35.50
-41.98
-48.61
-52.57
-50.96
-41.87
-25.36
-3.78
18.88
38.27
51.06
55.76
52.68
43.45
30.34
15.86
2.63
-6.86
-10.51
-7.12
3.19
18.86
37.16
54.74
68.25
75.05
73.91
65.37
51.68
36.14
22.03
11.54
5.35
2.67
1.98
1.71
0.70
-1.75
-5.85
-11.22
-16.45
-19.04
-16.01
-5.06
13.92
38.15
62.48
81.08
89.53
86.31
72.93
53.11
31.22
11.18
-4.43
-14.25
-17.91
-15.63
-8.12
3.35
16.86
29.81
39.39
43.28
40.51
31.93
19.99
7.90
-1.68
-7.47
-9.96
-10.83
-11.90
-14.24
-17.83
-21.72
-24.47
-24.64
-21.09
-13.18
-1.08
14.21
30.67
45.36
54.85
56.03
47.06
28.25
2.48
-25.26
-49.18
-64.40
-68.42
-61.60
-46.72
-27.82
-8.92
6.72
16.96
20.76
18.04
9.85
-1.88
-14.85
-27.10
-37.43
-45.64
-52.10
-57.21
-61.13
-63.77
-64.96
-64.44
-61.59
-55.17
-43.60
-25.68
-1.60
26.50
54.89
79.30
96.21
103.58
101.05
89.55
70.92
47.85
23.84
2.94
-11.12
-16.06
-12.03
-1.61
11.16
22.29
29.13
30.95
28.59
23.55
17.35
11.25
6.25
3.07
1.94
2.24
2.29
-0.28
-7.77
-21.43
-40.48
-61.80
-80.27
-90.12
-86.72
-68.31
-36.96
1.79
40.34
71.20
88.93
91.33
79.54
57.28
29.68
2.20
-20.39
-34.77
-39.67
-35.91
-26.03
-13.39
-1.09
8.70
14.86
17.13
15.87
11.82
5.97
-0.53
-6.62
-11.58
-15.20
-17.84
-20.21
-23.10
-27.09
-32.47
-39.14
-46.69
-54.22
-60.30
-62.85
-59.35
-47.57
-26.37
3.30
38.17
73.02
101.76
119.01
121.35
108.02
81.00
44.66
5.04
-31.08
-57.42
-69.63
-66.43
-50.12
-25.81
0.07
21.82
35.77
40.72
37.44
27.80
13.94
-1.99
-17.90
-31.72
-41.55
-46.11
-45.06
-39.10
-29.67
-18.51
-7.23
2.85
10.62
15.02
15.20
11.18
4.60
-1.22
-2.11
5.33
21.82
44.72
68.61
87.16
95.54
91.88
77.51
56.12
32.19
9.79
-8.19
-20.21
-25.92
-25.82
-21.05
-13.07
-3.52
5.88
13.31
17.02
15.57
8.34
-4.07
-19.76
-35.92
-49.75
-59.21
-63.75
-64.40
-63.26
-62.45
-63.05
-64.80
-66.39
-66.37
-64.08
-60.07
-55.67
-52.12
-49.59
-46.75
-41.46
-31.88
-17.56
0.28
19.17
36.21
48.70
54.75
53.60
45.57
31.73
13.94
-4.97
-21.46
-31.91
-34.10
-27.53
-13.39
5.63
25.46
41.82
51.91
55.40
54.22
50.44
45.87
41.52
37.40
31.97
23.22
10.79
-3.34
-14.97
-21.01
-19.56
-10.42
4.40
19.19
25.63
15.97
-13.75
-61.11
-119.56
-178.44
-225.82
-246.73
-231.66
-186.41
-130.72
-87.39
-58.58
-37.92
-16.88
9.29
41.84
78.00
113.46
146.34
172.45
190.60
200.23
203.02
201.84
198.66
193.24
184.18
170.60
152.23
129.31
100.31
63.80
20.54
-25.69
-69.62
-106.85
-135.19
-155.05
-167.83
-175.39
-179.07
-179.35
-177.48
-175.27
-176.05
-183.01
-197.95
-220.26
-247.12
-274.51
-297.37
-310.55
-310.07
-294.79
-267.21
-233.24
-200.18
-173.49
-155.79
-146.24
-141.66
-138.51
-134.45
-128.37
-118.77
-109.60
-100.35
-89.27
-74.60
-55.81
-33.98
-11.43
9.16
25.98
38.55
48.76
58.98
71.34
86.93
105.51
125.65
145.45
163.32
178.47
191.88
205.00
219.41
236.41
256.86
281.17
309.13
339.56
369.83
396.30
414.51
420.53
412.56
391.65
361.39
326.52
291.30
258.27
228.37
201.30
176.50
153.70
132.97
114.29
97.30
81.34
65.83
50.69
36.29
23.32
12.39
3.67
-3.25
-9.12
-14.79
-20.86
-27.49
-34.45
-41.14
-46.85
-50.90
-52.90
-52.89
-51.42
-49.29
-47.32
-45.96
-45.17
-44.48
-43.37
-41.53
-39.05
-36.34
-33.76
-31.42
-29.06
-26.25
-22.75
-18.69
-14.47
-10.63
-7.45
-4.85
-2.48
0.03
2.88
6.00
9.15
12.10
14.69
16.84
18.46
19.43
19.69
19.42
19.03
19.08
20.05
22.02
24.68
27.49
30.04
32.30
34.61
37.49
41.19
45.51
49.87
53.59
56.45
58.85
61.81
66.57
74.02
84.24
96.28
108.53
119.13
126.66
130.63
131.62
131.12
131.03
132.89
137.21
142.79
146.68
144.83
133.33
109.89
74.58
29.88
-20.42
-72.75
-124.97
-176.96
-230.28
-287.39
-350.45
-419.94
-493.48
-565.31
-627.05
-669.77
-686.84
-676.21
-641.11
-588.55
-526.54
-461.32
-396.09
-331.26
-265.99
-199.56
-132.33
-65.76
-2.14
55.89
105.71
145.21
173.29
190.10
196.89
195.52
188.12
176.87
164.05
152.06
143.04
138.19
137.18
138.09
138.14
135.01
127.75
117.14
105.07
93.66
84.33
77.50
72.72
69.20
66.20
63.29
60.33
57.43
54.76
52.51
50.80
49.57
48.53
47.28
45.46
43.06
40.43
38.12
36.56
35.77
35.34
34.59
32.96
30.14
26.15
21.19
15.51
9.46
3.52
-1.72
-5.72
-8.23
-9.41
-9.76
-9.76
-9.61
-9.12
-7.90
-5.72
-2.78
0.36
3.09
5.14
6.79
8.80
11.97
16.79
23.15
30.44
37.73
44.25
49.73
54.53
59.57
65.96
74.60
85.82
99.23
113.84
128.45
142.04
154.18
165.18
176.00
187.99
202.37
219.44
237.88
254.40
264.21
262.25
244.90
211.44
164.19
107.81
47.36
-13.39
-72.91
-131.80
-192.07
-256.16
-325.83
-401.06
-478.96
-553.38
-615.70
-657.07
-671.45
-657.76
-620.41
-567.31
-506.85
-445.17
-384.99
-326.27
-267.80
-208.80
-149.50
-91.21
-35.81
14.52
57.54
91.37
114.95
128.47
133.16
131.14
124.84
116.73
109.08
103.85
102.42
105.17
111.09
118.01
123.31
124.98
122.64
117.63
112.35
109.23
109.47
112.72
117.40
121.64
124.13
124.54
123.36
121.40
119.32
117.40
115.62
113.88
112.08
110.14
107.96
105.46
102.58
99.43
96.17
92.90
89.48
85.61
80.85
74.89
67.67
59.37
50.37
41.15
32.19
23.92
16.64
10.55
5.65
1.87
-0.92
-2.83
-3.95
-4.46
-4.71
-5.11
-6.10
-7.84
-10.17
-12.70
-15.02
-17.01
-18.86
-20.95
-23.40
-25.92
-27.78
-28.15
-26.49
-22.86
-17.89
-12.42
-7.10
-2.10
2.93
8.49
14.97
22.32
30.05
37.49
44.09
49.81
55.20
61.31
69.36
80.25
94.17
110.50
127.81
144.46
159.10
171.32
181.72
191.94
203.99
219.40
238.19
258.07
274.38
281.00
272.32
245.57
202.76
150.82
99.95
60.32
38.52
35.22
45.06
58.87
67.10
63.03
44.46
13.11
-27.03
-72.00
-119.39
-168.46
-219.53
-273.15
-329.83
-389.91
-453.11
-517.68
-579.58
-632.23
-667.87
-680.03
-665.93
-627.72
-571.42
-504.55
-433.41
-361.83
-291.61
-224.00
-161.04
-105.66
-60.56
-26.84
-3.24
13.47
27.05
40.30
54.24
67.93
79.64
87.99
92.82
95.19
96.69
98.54
100.94
103.11
103.85
102.30
98.51
93.50
88.81
85.81
84.98
85.76
86.73
86.30
83.44
78.17
71.51
64.87
59.30
54.94
51.08
46.68
41.14
34.75
28.53
23.70
21.07
20.66
21.94
24.13
26.65
29.23
31.89
34.67
37.54
40.35
42.93
45.12
46.86
48.13
48.97
49.45
49.64
49.59
49.34
48.89
48.24
47.37
46.29
45.05
43.63
42.06
40.34
38.51
36.60
34.61
32.43
29.88
26.85
23.37
19.72
16.40
13.89
12.51
12.19
12.62
13.37
14.13
14.81
15.47
16.15
16.77
17.04
16.72
15.74
14.34
12.98
12.11
11.91
12.21
12.61
12.65
12.11
11.08
9.85
8.74
7.96
7.50
7.19
6.85
6.35
5.73
5.11
4.56
4.04
3.39
2.40
0.99
-0.72
-2.39
-3.55
-3.88
-3.25
-1.82
0.15
2.42
4.86
7.43
10.01
12.34
14.01
14.64
14.08
12.54
10.49
8.54
7.17
6.55
6.57
6.95
7.33
7.44
7.08
6.22
4.90
3.28
1.57
-0.02
-1.33
-2.32
-3.04
-3.62
-4.22
-4.99
-5.94
-6.98
-7.93
-8.49
-8.38
-7.38
-5.43
-2.69
0.46
3.51
6.01
7.64
8.31
8.15
7.36
6.15
4.68
3.11
1.60
0.37
-0.39
-0.61
-0.40
-0.06
0.06
-0.31
-1.19
-2.46
-3.83
-5.04
-5.92
-6.44
-6.74
-7.00
-7.41
-7.96
-8.47
-8.60
-7.99
-6.41
-3.87
-0.66
2.74
5.81
8.25
10.14
11.52
12.39
12.77
12.76
12.52
12.12
11.65
11.21
11.05
11.29
12.03
13.26
14.94
16.97
18.89
20.29
21.10
21.91
23.04
24.66
26.77
29.42
32.66
35.77
38.01
39.38
41.47
45.09
50.82
58.88
69.68
83.48
98.52
112.66
124.95
137.57
151.22
166.29
182.55
200.27
219.47
237.18
249.96
256.14
258.17
255.30
245.44
225.37
193.33
148.98
90.22
16.54
-68.58
-155.64
-238.96
-315.05
-383.04
-442.20
-471.68
-455.27
-395.26
-336.57
-292.69
-266.06
-246.19
-230.50
-218.62
-211.81
-215.13
-233.13
-253.24
-261.55
-254.65
-235.28
-206.63
-167.58
-116.41
-56.87
3.23
55.90
97.42
125.37
141.30
148.91
152.81
155.30
154.80
148.89
137.57
124.37
112.52
105.02
103.34
108.31
117.69
126.93
130.83
125.10
107.80
79.36
43.68
6.95
-22.60
-40.18
-45.90
-43.63
-38.16
-32.82
-28.59
-24.51
-19.41
-13.25
-7.73
-4.80
-5.37
-8.66
-12.79
-15.54
-15.44
-12.38
-7.57
-3.11
-0.65
-0.81
-2.95
-5.63
-7.28
-6.92
-4.53
-0.94
2.44
4.43
4.63
3.41
1.79
0.91
1.56
3.79
6.98
9.96
11.68
11.69
10.29
8.51
7.55
8.33
11.01
14.94
18.86
21.52
22.28
21.42
20.04
19.41
20.37
22.62
25.14
26.40
25.13
20.91
13.94
4.73
-6.38
-18.66
-30.27
-37.57
-37.38
-28.19
-12.26
4.43
14.68
13.37
0.49
-19.36
-39.23
-53.48
-60.01
-60.27
-58.47
-57.65
-58.73
-60.80
-62.83
-64.93
-68.34
-74.06
-81.34
-87.55
-87.88
-78.18
-57.24
-27.76
4.32
32.06
50.40
57.80
56.43
50.64
44.48
40.12
37.59
35.77
33.63
30.94
28.26
26.23
25.13
24.47
23.58
21.67
18.65
14.98
11.52
9.04
7.83
7.68
7.81
7.35
5.74
3.05
-0.11
-2.95
-4.84
-5.68
-5.87
-6.20
-7.36
-9.60
-12.50
-15.18
-16.51
-15.69
-12.38
-6.75
0.66
9.42
18.98
28.94
38.80
47.90
55.68
62.23
68.51
75.82
84.32
91.98
94.44
86.64
65.45
31.67
-9.85
-52.06
-88.45
-114.77
-129.40
-132.19
-123.49
-104.27
-76.99
-46.22
-17.92
2.46
12.78
14.58
11.81
8.63
7.22
7.39
7.50
6.17
3.83
2.43
4.67
12.44
25.88
42.44
56.92
63.14
55.98
33.78
-1.28
-43.65
-85.92
-120.65
-141.90
-146.25
-133.07
-104.51
-64.36
-18.14
28.20
69.62
103.35
129.28
149.89
169.61
189.45
212.14
240.24
275.74
319.57
370.69
424.98
475.10
511.96
527.23
517.23
484.01
434.93
379.87
327.59
282.96
246.50
215.93
188.50
163.08
139.85
119.45
101.90
86.21
70.79
54.43
36.79
18.33
0.23
-16.82
-32.93
-48.95
-65.95
-84.69
-105.27
-127.22
-149.94
-172.98
-196.57
-221.48
-248.50
-277.89
-309.34
-341.95
-374.77
-407.11
-438.73
-469.90
-501.47
-534.78
-571.32
-612.17
-656.37
-700.08
-736.39
-756.96
-754.87
-727.33
-676.92
-610.54
-537.11
-464.13
-396.23
-334.83
-279.24
-228.22
-180.81
-136.27
-93.73
-52.71
-12.75
25.68
61.29
92.51
117.89
136.72
149.60
158.81
167.40
179.52
197.93
222.54
249.02
269.08
273.05
253.65
214.89
166.51
123.66
98.31
93.78
104.71
121.80
137.22
147.24
151.86
150.49
145.14
136.15
124.26
112.07
104.04
105.13
119.02
146.60
180.20
207.62
216.96
203.07
168.52
120.40
66.32
12.18
-38.02
-82.06
-116.86
-141.23
-153.75
-154.23
-145.48
-133.20
-124.55
-125.15
-136.56
-154.33
-169.69
-174.50
-162.45
-133.14
-92.48
-49.70
-12.96
13.72
31.51
44.17
55.12
65.43
73.60
77.65
77.42
75.17
74.55
79.34
91.69
111.66
137.57
166.21
193.59
215.74
229.52
233.34
227.72
214.93
197.99
179.58
160.82
141.20
119.45
94.81
67.86
40.74
16.13
-3.73
-17.36
-24.16
-24.12
-17.33
-4.00
15.46
40.51
69.51
99.67
128.30
153.12
172.40
185.42
192.54
195.05
195.59
196.15
197.24
199.58
203.75
209.52
216.23
223.00
228.82
233.90
237.58
237.70
234.11
228.29
222.14
217.77
217.20
221.68
232.48
247.50
260.28
265.27
258.65
238.69
206.90
168.21
120.16
70.89
40.72
32.52
40.95
60.98
87.07
113.84
136.09
149.27
151.24
139.85
112.22
69.37
15.37
-44.62
-105.11
-161.41
-209.80
-246.56
-270.15
-282.05
-283.22
-274.47
-257.46
-234.57
-209.32
-185.18
-164.07
-147.33
-136.35
-130.70
-128.81
-129.16
-130.66
-134.59
-142.01
-152.55
-165.09
-178.76
-192.54
-205.68
-218.17
-230.78
-248.38
-274.10
-307.77
-346.45
-386.49
-424.83
-459.37
-489.17
-514.35
-541.36
-574.08
-612.48
-653.89
-695.92
-737.21
-775.85
-807.48
-825.29
-829.18
-817.56
-788.22
-740.55
-677.99
-607.30
-535.38
-466.79
-360.36
-206.34
-25.07
145.91
277.87
362.58
406.72
422.36
420.28
410.18
389.51
356.59
314.35
269.63
229.45
198.40
177.05
164.54
159.04
152.58
140.39
122.63
103.04
85.78
73.18
65.76
63.16
64.55
65.28
62.77
57.33
51.34
47.20
46.08
48.06
52.81
59.84
66.75
72.12
75.89
79.00
82.51
87.17
93.51
102.14
113.65
127.72
144.04
162.34
182.67
204.97
229.14
255.03
282.54
311.61
342.22
374.66
409.53
447.49
488.28
529.86
568.13
597.78
614.02
614.38
599.68
573.64
541.90
509.78
480.89
456.83
437.67
422.61
409.82
396.14
377.10
348.94
309.37
258.72
200.12
138.75
80.03
27.47
-18.28
-59.11
-95.98
-129.76
-161.64
-193.49
-226.98
-262.23
-297.36
-328.76
-352.62
-363.71
-359.58
-342.09
-315.76
-284.27
-248.24
-206.38
-158.23
-106.29
-51.98
2.74
55.11
103.09
146.82
188.15
228.31
265.88
272.74
230.34
140.76
27.30
-80.36
-161.82
-210.18
-228.91
-226.22
-211.01
-186.76
-152.27
-108.93
-61.60
-16.72
20.45
46.46
60.37
62.83
50.54
28.65
3.02
-22.75
-46.97
-68.73
-88.37
-106.27
-122.98
-137.88
-151.70
-164.61
-177.82
-192.34
-207.80
-223.02
-235.11
-240.83
-238.55
-228.32
-213.70
-200.69
-195.30
-196.22
-203.98
-217.89
-228.17
-228.33
-215.98
-194.75
-170.71
-147.39
-124.87
-101.92
-77.13
-50.32
-24.28
-1.73
15.26
26.27
32.91
37.92
44.97
57.79
79.60
110.14
146.06
181.02
203.64
207.15
190.50
157.86
116.88
75.99
40.16
12.15
-10.12
-27.43
-38.34
-40.55
-32.97
-16.55
6.32
31.38
54.08
70.90
80.52
84.00
84.34
85.05
85.28
85.77
87.41
91.24
98.32
109.71
120.08
124.77
120.33
105.92
83.64
56.48
27.60
-0.04
-23.89
-42.29
-54.55
-61.96
-67.22
-72.56
-78.89
-84.99
-88.17
-85.80
-76.30
-59.53
-37.27
-12.30
12.76
35.56
55.19
70.15
78.90
81.03
77.41
69.16
57.15
41.86
23.23
1.49
-22.32
-46.67
-68.81
-86.10
-97.06
-101.56
-100.16
-93.61
-82.44
-64.02
-41.96
-21.15
-6.06
0.98
0.73
-3.43
-7.47
-9.26
-8.55
-7.34
-7.17
-8.24
-9.38
-8.83
-5.70
-0.95
3.03
3.56
-1.24
-10.76
-21.91
-31.14
-36.04
-36.67
-35.54
-36.16
-40.89
-49.94
-60.44
-67.80
-67.70
-57.58
-37.54
-9.86
21.93
54.14
83.22
106.28
121.06
125.89
120.11
104.33
80.50
51.69
21.49
-6.94
-31.47
-51.17
-65.96
-76.07
-81.46
-81.86
-77.06
-67.16
-52.74
-34.78
-14.32
7.64
30.21
52.35
72.75
89.88
102.27
108.94
109.56
104.57
94.89
81.76
66.32
49.51
32.12
14.83
-1.69
-16.93
-30.61
-42.79
-53.78
-63.89
-73.19
-81.27
-87.49
-91.13
-91.80
-89.59
-84.96
-78.58
-71.27
-63.72
-56.29
-49.07
-41.99
-35.09
-28.45
-22.24
-16.68
-12.05
-8.56
-6.09
-4.16
-2.11
0.71
4.81
10.62
18.39
27.88
38.66
50.49
63.45
77.79
93.65
111.00
129.58
148.81
166.62
180.68
189.67
193.78
193.97
191.02
185.22
176.61
165.29
149.58
128.14
102.18
75.61
52.74
36.23
26.56
22.89
24.02
25.54
23.38
17.37
11.68
11.06
17.39
28.51
39.51
44.24
32.39
-5.32
-71.36
-160.13
-262.43
-369.71
-475.92
-576.34
-636.93
-628.81
-550.08
-428.18
-296.70
-176.92
-77.06
0.80
57.53
93.12
108.63
103.44
81.09
50.10
19.03
-2.27
-10.05
-4.44
12.26
33.94
54.05
68.32
80.75
94.85
111.08
126.35
136.85
139.36
130.04
103.18
59.95
8.12
-41.68
-78.65
-94.94
-87.02
-57.52
-15.56
26.52
58.85
77.31
83.09
80.88
75.50
69.87
64.22
56.98
46.77
34.33
22.09
12.36
6.38
3.84
3.72
4.66
6.38
9.35
14.37
21.36
28.56
33.20
32.77
26.32
14.97
1.59
-10.57
-19.16
-23.60
-24.78
-24.05
-22.03
-18.43
-12.56
-4.02
6.68
18.12
28.53
36.60
40.49
39.51
34.05
25.22
14.55
3.48
-6.90
-15.89
-23.11
-28.35
-31.31
-31.82
-30.12
-26.88
-23.15
-19.88
-17.60
-16.19
-15.15
-13.83
-12.06
-10.29
-9.30
-9.63
-11.21
-13.35
-15.05
-15.54
-14.40
-11.66
-7.63
-2.68
2.76
8.11
12.64
15.57
16.38
15.09
12.26
8.67
5.07
1.86
-0.88
-3.19
-5.04
-6.21
-6.40
-5.42
-3.52
-1.33
0.28
0.51
-0.92
-3.63
-6.69
-8.99
-9.86
-9.53
-8.96
-9.26
-10.93
-13.28
-14.65
-13.25
-8.17
-0.05
9.25
17.56
23.49
26.89
28.57
29.36
29.46
28.26
24.84
18.83
10.89
2.62
-4.14
-8.12
-9.12
-8.05
-6.33
-5.27
-5.59
-7.27
-9.84
-12.67
-15.24
-17.20
-18.32
-18.35
-17.07
-14.29
-10.04
-4.55
1.81
8.68
15.75
22.71
29.14
34.41
37.75
38.51
36.33
31.37
24.29
16.10
7.87
0.64
-4.80
-7.94
-8.64
-7.16
-4.14
-0.47
2.90
5.14
5.76
4.69
2.24
-1.03
-4.49
-7.62
-10.21
-12.26
-13.86
-15.03
-15.49
-14.73
-12.19
-7.62
-1.34
5.70
12.16
16.76
18.73
18.05
15.36
11.68
7.97
4.84
2.45
0.73
-0.44
-1.02
-0.86
0.16
1.93
4.08
6.09
7.49
8.05
7.83
7.07
5.93
4.45
2.54
0.16
-2.47
-4.82
-6.06
-5.37
-2.27
3.07
9.77
16.43
21.53
23.95
23.32
20.05
15.07
9.43
3.92
-1.10
-5.62
-9.66
-13.18
-15.89
-17.46
-17.71
-16.80
-15.20
-13.51
-12.22
-11.58
-11.62
-12.30
-13.62
-15.67
-18.38
-21.33
-23.67
-24.34
-22.50
-17.96
-11.37
-4.13
2.07
5.78
6.25
3.54
-1.54
-7.79
-13.96
-19.06
-22.45
-23.95
-23.62
-21.67
-18.42
-14.22
-9.56
-5.06
-1.38
0.91
1.52
0.48
-1.86
-5.06
-8.61
-11.83
-14.02
-14.34
-12.14
-7.21
0.03
8.55
16.96
23.94
28.55
30.39
29.55
26.47
21.77
16.20
10.48
5.25
0.95
-2.18
-4.10
-4.83
-4.40
-2.90
-0.54
2.27
4.99
7.11
8.26
8.24
7.04
4.78
1.80
-1.25
-3.42
-3.66
-1.18
4.13
11.49
19.41
26.15
30.31
31.24
29.11
24.75
19.23
13.53
8.36
4.10
0.91
-1.31
-2.76
-3.67
-4.22
-4.50
-4.50
-4.24
-3.81
-3.39
-3.21
-3.44
-4.09
-5.06
-6.18
-7.29
-8.13
-8.33
-7.34
-4.63
0.04
6.32
13.23
19.40
23.54
24.92
23.58
20.18
15.62
10.82
6.38
2.68
-0.13
-2.01
-3.04
-3.40
-3.27
-2.85
-2.24
-1.54
-0.85
-0.39
-0.36
-0.90
-2.03
-3.65
-5.67
-8.03
-10.59
-12.98
-14.53
-14.36
-11.83
-6.88
-0.26
6.67
12.46
16.09
17.33
16.65
14.79
12.41
9.79
7.00
4.10
1.34
-0.81
-1.91
-1.83
-0.90
0.22
0.81
0.42
-0.95
-2.88
-4.77
-6.10
-6.70
-6.77
-6.82
-7.42
-8.92
-11.27
-13.84
-15.60
-15.45
-12.68
-7.29
-0.15
7.28
13.50
17.47
18.92
18.31
16.38
13.73
10.63
7.04
2.95
-1.25
-4.79
-6.72
-6.47
-4.18
-0.79
2.37
4.18
4.14
2.56
0.18
-2.20
-4.17
-5.70
-7.04
-8.45
-10.05
-11.84
-13.75
-15.78
-17.79
-19.52
-20.41
-19.83
-17.25
-12.60
-6.28
0.83
7.67
13.24
16.72
17.59
15.51
10.45
2.70
-7.06
-17.86
-28.56
-38.19
-46.10
-52.07
-56.19
-58.75
-60.19
-60.94
-61.40
-61.74
-61.89
-61.55
-60.35
-58.03
-54.66
-50.71
-47.02
-44.42
-43.44
-44.22
-46.55
-49.95
-53.76
-57.19
-59.52
-60.43
-60.13
-59.25
-58.90
-60.26
-64.21
-70.85
-79.32
-87.86
-94.31
-96.33
-91.31
-77.58
-54.98
-25.06
9.47
45.63
80.81
113.22
142.28
169.47
196.26
222.86
247.76
268.43
282.83
290.22
291.39
288.84
287.58
291.46
301.32
314.59
326.92
334.46
334.58
325.54
306.64
280.33
249.39
216.23
182.92
151.84
126.18
108.37
98.34
78.02
36.33
-25.43
-92.50
-147.14
-179.28
-188.69
-180.24
-164.76
-150.27
-138.39
-127.62
-115.69
-102.02
-90.73
-85.29
-88.81
-102.87
-125.23
-148.50
-164.63
-168.76
-161.63
-148.72
-136.31
-128.53
-125.68
-123.77
-116.26
-98.49
-69.89
-33.84
4.43
40.53
71.47
95.41
111.44
119.40
119.16
110.70
94.52
72.10
46.24
20.30
-2.47
-19.41
-28.72
-29.81
-23.14
-9.82
8.83
31.80
58.24
87.33
118.09
149.18
179.00
206.08
229.47
248.45
262.24
268.95
265.10
245.90
206.61
144.55
60.98
-38.39
-144.33
-245.88
-332.96
-398.35
-438.64
-454.40
-449.80
-431.91
-409.63
-391.40
-382.57
-383.45
-389.28
-392.48
-386.28
-367.80
-338.68
-303.67
-266.91
-228.75
-185.30
-130.53
-59.39
29.68
134.10
247.89
361.46
463.57
543.06
590.46
599.72
569.60
504.27
412.74
306.45
193.71
79.57
-32.81
-139.88
-236.52
-316.16
-371.53
-396.34
-387.57
-350.66
-295.49
-231.72
-165.44
-99.39
-35.64
22.67
70.66
102.36
107.17
76.74
9.89
-85.77
-197.59
-313.30
-424.01
-524.61
-581.81
-570.19
-487.53
-359.85
-222.13
-97.95
4.23
84.90
147.44
195.35
226.72
239.26
234.34
218.30
199.47
184.22
175.59
173.97
178.60
184.70
187.47
185.12
179.68
174.83
173.00
174.78
179.23
184.79
187.45
183.32
170.30
148.88
121.15
89.23
56.13
24.51
-3.14
-26.19
-44.86
-59.83
-71.62
-80.61
-87.30
-92.66
-97.99
-104.15
-111.05
-116.64
-116.97
-107.66
-86.46
-54.93
-18.77
14.42
38.20
49.86
50.85
45.18
36.81
27.87
18.49
7.92
-3.97
-16.12
-26.55
-33.59
-36.49
-35.56
-31.73
-26.04
-18.91
-10.30
0.04
12.14
25.48
38.94
51.11
60.71
66.98
69.80
69.75
67.74
64.77
61.68
58.98
57.04
56.00
55.90
56.50
57.49
58.57
59.48
60.17
60.73
61.42
62.56
64.49
67.57
71.99
77.43
82.66
85.56
83.60
74.88
59.10
38.02
15.01
-6.17
-22.74
-33.71
-39.86
-42.87
-44.32
-45.12
-45.22
-44.42
-42.80
-40.87
-39.48
-39.35
-40.66
-42.92
-45.08
-46.07
-45.32
-42.97
-39.80
-36.85
-34.87
-34.04
-34.04
-34.30
-34.38
-34.11
-33.53
-32.69
-31.49
-29.76
-27.26
-23.89
-19.74
-14.99
-9.85
-4.59
0.47
4.91
8.39
10.75
12.12
12.85
13.28
13.56
13.59
13.10
11.88
9.94
7.52
4.95
2.51
0.27
-1.76
-3.65
-5.38
-6.94
-8.31
-9.47
-10.41
-11.06
-11.28
-10.93
-10.02
-8.65
-7.10
-5.77
-4.79
-4.09
-3.45
-2.68
-1.91
-1.65
-2.52
-5.13
-9.74
-16.14
-23.75
-31.77
-39.33
-45.68
-50.11
-51.93
-50.64
-46.02
-38.26
-28.03
-16.39
-4.54
6.40
15.59
22.57
27.20
29.66
30.34
29.74
28.43
27.06
26.10
25.87
26.43
27.66
29.29
31.03
32.54
33.64
34.25
34.31
33.83
32.84
31.35
29.38
26.93
23.92
20.30
16.09
11.36
6.39
1.51
-2.95
-6.73
-9.72
-11.91
-13.29
-13.86
-13.70
-12.96
-11.90
-10.81
-9.80
-8.77
-7.46
-5.62
-3.12
-0.05
3.35
6.67
9.32
10.67
10.04
6.84
0.72
-8.21
-19.30
-31.43
-43.24
-53.37
-60.58
-63.91
-62.69
-56.75
-46.44
-32.71
-16.93
-0.59
14.89
28.43
39.29
47.03
51.47
52.77
51.43
48.29
44.45
40.89
38.15
36.30
34.98
33.81
32.54
31.18
29.82
28.57
27.33
25.75
23.54
20.52
16.74
12.26
7.03
0.79
-6.72
-15.71
-26.17
-37.75
-49.81
-61.56
-72.16
-80.80
-86.77
-89.51
-88.73
-84.47
-77.07
-67.18
-55.61
-43.22
-30.82
-19.14
-8.75
-0.03
6.86
11.97
15.45
17.47
18.20
17.80
16.41
14.28
11.77
9.38
7.59
6.72
6.87
8.00
9.88
12.17
14.54
16.61
17.98
18.38
17.68
15.98
13.62
10.96
8.33
5.99
4.02
2.47
1.42
0.98
1.26
2.23
3.75
5.48
7.04
8.05
8.35
7.91
6.92
5.66
4.46
3.63
3.35
3.68
4.59
5.97
7.66
9.50
11.31
12.97
14.34
15.39
16.08
16.37
16.14
15.16
13.27
10.43
6.96
3.42
0.46
-1.33
-1.73
-0.78
1.24
4.06
7.51
11.44
15.60
19.54
22.67
24.45
24.63
23.35
21.11
18.51
16.00
13.79
11.79
9.83
7.80
5.75
3.83
2.17
0.79
-0.45
-1.71
-3.08
-4.50
-5.83
-6.95
-7.88
-8.74
-9.65
-10.65
-11.50
-11.90
-11.52
-10.25
-8.18
-5.57
-2.72
0.15
2.92
5.55
7.93
9.92
11.32
12.02
12.08
11.70
11.10
10.45
9.79
9.09
8.32
7.57
6.93
6.51
6.33
6.28
6.26
6.13
5.83
5.33
4.68
3.87
2.97
2.01
0.97
-0.23
-1.76
-3.72
-6.09
-8.62
-10.92
-12.53
-13.12
-12.59
-10.99
-8.53
-5.43
-1.89
1.81
5.37
8.46
10.79
12.16
12.63
12.41
11.80
11.05
10.26
9.38
8.33
7.06
5.67
4.34
3.25
2.52
2.16
2.10
2.26
2.54
2.91
3.30
3.67
3.94
4.06
3.99
3.60
2.79
1.37
-0.75
-3.47
-6.55
-9.57
-12.12
-13.93
-14.98
-15.36
-15.17
-14.45
-13.12
-11.14
-8.61
-5.82
-3.14
-0.81
1.13
2.87
4.60
6.41
8.15
9.55
10.37
10.61
10.42
10.00
9.44
8.75
7.87
6.81
5.72
4.71
3.89
3.22
2.59
1.85
1.00
0.12
-0.68
-1.30
-1.75
-2.09
-2.37
-2.58
-2.67
-2.60
-2.38
-2.09
-1.90
-1.96
-2.38
-3.24
-4.52
-6.15
-7.99
-9.88
-11.60
-12.94
-13.67
-13.63
-12.72
-10.88
-8.17
-4.76
-0.97
2.74
5.90
8.07
9.08
8.94
7.92
6.34
4.49
2.50
0.40
-1.81
-4.10
-6.34
-8.33
-9.80
-10.53
-10.39
-9.38
-7.57
-5.13
-2.22
0.97
4.25
7.38
10.14
12.36
13.96
15.04
15.69
16.03
16.04
15.62
14.66
13.21
11.41
9.57
7.94
6.63
5.59
4.68
3.81
2.96
2.22
1.63
1.22
0.83
0.26
-0.63
-1.85
-3.26
-4.59
-5.53
-5.91
-5.66
-4.95
-4.05
-3.22
-2.63
-2.27
-2.00
-1.67
-1.20
-0.64
-0.15
0.14
0.20
0.07
-0.22
-0.61
-1.14
-1.83
-2.72
-3.72
-4.76
-5.77
-6.86
-8.19
-9.98
-12.30
-14.98
-17.67
-19.88
-21.25
-21.54
-20.77
-19.07
-16.62
-13.62
-10.30
-7.00
-4.16
-2.21
-1.44
-1.80
-2.95
-4.37
-5.55
-6.29
-6.64
-6.88
-7.23
-7.76
-8.37
-8.87
-9.19
-9.38
-9.60
-9.94
-10.40
-10.80
-10.89
-10.46
-9.48
-8.09
-6.54
-5.17
-4.25
-3.97
-4.33
-5.18
-6.19
-6.98
-7.22
-6.69
-5.31
-3.14
-0.37
2.73
5.83
8.62
10.84
12.33
13.07
13.19
12.89
12.44
11.96
11.48
10.98
10.45
9.91
9.41
8.96
8.54
8.04
7.35
6.37
5.13
3.78
2.45
1.32
0.41
-0.31
-0.89
-1.41
-1.91
-2.50
-3.22
-4.17
-5.24
-6.25
-6.86
-6.73
-5.72
-3.95
-1.82
0.21
1.78
2.88
3.67
4.35
5.01
5.56
5.83
5.75
5.41
5.00
4.74
4.72
4.81
4.85
4.64
4.09
3.23
2.13
0.93
-0.24
-1.23
-1.95
-2.36
-2.57
-2.70
-2.83
-3.07
-3.47
-4.10
-5.08
-6.50
-8.26
-10.15
-11.77
-12.75
-12.84
-12.00
-10.35
-8.12
-5.54
-2.75
0.10
2.84
5.27
7.17
8.43
9.08
9.27
9.24
9.16
9.04
8.77
8.16
7.09
5.64
4.03
2.56
1.50
0.88
0.56
0.33
0.06
-0.25
-0.46
-0.46
-0.21
0.15
0.38
0.30
-0.17
-1.01
-2.09
-3.33
-4.67
-6.09
-7.54
-8.90
-9.98
-10.55
-10.53
-9.90
-8.73
-7.16
-5.26
-3.08
-0.65
1.96
4.63
7.11
9.17
10.65
11.51
11.86
11.90
11.81
11.78
11.84
11.98
12.07
11.96
11.54
10.75
9.67
8.49
7.44
6.67
6.21
5.91
5.61
5.14
4.53
3.92
3.44
3.21
3.10
2.94
2.51
1.75
0.67
-0.56
-1.80
-3.00
-4.18
-5.43
-6.78
-8.25
-9.76
-11.23
-12.53
-13.52
-14.10
-14.19
-13.75
-12.82
-11.47
-9.84
-8.05
-6.24
-4.52
-3.06
-1.98
-1.42
-1.46
-2.07
-3.11
-4.41
-5.73
-6.87
-7.72
-8.19
-8.26
-7.92
-7.22
-6.26
-5.23
-4.36
-3.88
-3.95
-4.54
-5.46
-6.40
-6.99
-6.99
-6.32
-5.11
-3.67
-2.36
-1.46
-1.14
-1.36
-1.95
-2.71
-3.51
-4.25
-4.83
-5.16
-5.03
-4.31
-2.94
-1.04
1.12
3.26
5.20
6.85
8.23
9.34
10.16
10.64
10.75
10.54
10.09
9.52
8.96
8.44
7.98
7.58
7.21
6.79
6.30
5.74
5.16
4.67
4.38
4.31
4.41
4.56
4.62
4.53
4.28
3.93
3.51
2.99
2.29
1.34
0.16
-1.13
-2.35
-3.37
-4.19
-4.93
-5.74
-6.69
-7.71
-8.58
-9.04
-8.85
-7.92
-6.30
-4.10
-1.55
1.10
3.58
5.64
7.10
7.91
8.11
7.82
7.20
6.38
5.49
4.66
4.00
3.60
3.44
3.38
3.19
2.71
1.96
1.11
0.45
0.21
0.47
1.04
1.59
1.83
1.62
1.03
0.28
-0.45
-1.09
-1.75
-2.62
-3.84
-5.37
-6.98
-8.38
-9.29
-9.63
-9.44
-8.95
-8.31
-7.59
-6.73
-5.62
-4.15
-2.30
-0.18
2.09
4.38
6.62
8.75
10.71
12.35
13.49
13.93
13.54
12.33
10.49
8.45
6.66
5.50
5.13
5.47
6.27
7.16
7.78
7.83
7.29
6.37
5.36
4.56
4.12
4.02
4.17
4.31
4.31
4.33
4.74
5.76
7.34
9.11
10.60
11.40
10.94
9.09
6.48
4.25
3.45
4.51
7.05
10.25
13.26
14.72
14.14
12.56
12.03
14.33
19.84
27.39
34.82
40.13
40.96
36.86
30.11
24.43
22.43
23.56
24.19
19.17
4.24
-24.15
-66.22
-117.59
-170.32
-215.87
-247.49
-261.20
-255.87
-221.40
-157.08
-77.09
-4.40
43.73
64.33
66.31
63.01
65.20
78.45
101.61
128.66
154.16
177.00
198.44
220.99
246.15
272.32
293.88
300.89
281.02
226.69
139.55
29.71
-88.94
-204.34
-309.21
-400.94
-463.46
-482.51
-454.88
-391.74
-310.92
-227.62
-151.15
-85.86
-32.79
9.17
40.01
60.09
71.52
77.97
83.08
89.22
97.20
106.08
114.30
118.12
113.88
99.97
77.27
47.92
13.74
-22.45
-57.69
-87.75
-108.30
-115.18
-105.88
-81.34
-47.00
-11.25
17.61
34.45
38.93
33.85
23.14
10.09
-3.16
-15.43
-25.49
-31.88
-33.35
-29.52
-21.66
-12.04
-3.13
3.49
7.46
9.53
11.11
13.78
18.87
26.83
36.57
45.18
48.98
44.88
32.28
13.82
-5.48
-20.38
-27.51
-26.11
-18.96
-8.18
5.33
22.09
42.90
67.08
91.53
111.61
123.23
124.97
118.88
108.96
98.84
90.08
81.70
71.27
56.88
38.38
17.66
-2.24
-18.76
-30.76
-38.45
-42.51
-43.05
-39.29
-30.20
-15.55
3.28
23.37
41.27
54.38
61.85
64.67
64.91
64.83
66.02
69.34
74.93
82.49
91.44
101.16
111.02
120.58
129.65
138.15
145.91
152.47
157.13
158.96
156.94
150.22
138.52
122.43
103.52
84.37
67.57
54.99
46.39
38.94
27.66
6.96
-27.23
-75.55
-134.22
-195.70
-250.34
-289.04
-305.33
-296.35
-262.77
-208.07
-138.00
-60.52
14.45
76.02
114.75
125.44
109.04
72.18
24.34
-25.43
-70.47
-106.46
-130.40
-140.14
-135.49
-119.14
-97.29
-77.68
-66.24
-64.69
-71.40
-84.56
-104.95
-136.58
-183.67
-246.64
-319.16
-388.91
-441.57
-466.92
-462.97
-435.49
-393.59
-344.41
-290.18
-229.14
-158.71
-78.30
7.88
91.19
161.39
211.16
238.99
248.72
246.87
239.57
232.11
228.19
230.12
238.58
253.15
272.15
291.69
305.12
298.05
259.87
192.46
112.01
39.10
-13.05
-42.25
-54.23
-57.23
-57.01
-53.90
-45.22
-28.94
-6.63
17.02
36.97
50.00
55.25
53.39
47.10
39.65
33.80
31.51
34.21
42.56
56.78
73.94
89.09
98.53
101.41
98.99
93.49
86.41
78.37
69.13
58.54
47.88
40.48
40.19
48.62
65.23
87.32
111.41
133.19
147.76
150.82
140.44
118.24
87.23
52.15
17.69
-12.22
-36.02
-54.76
-70.86
-86.55
-103.20
-125.10
-152.34
-186.38
-227.45
-274.17
-324.11
-373.94
-419.79
-441.13
-424.97
-370.60
-290.00
-199.57
-112.12
-34.31
32.27
88.90
136.16
175.98
207.46
228.43
237.80
235.85
223.25
201.07
168.92
130.62
90.12
50.74
14.77
-16.32
-41.66
-61.63
-76.83
-87.35
-92.45
-92.90
-90.35
-86.74
-83.59
-81.65
-82.02
-85.64
-92.86
-102.89
-114.07
-122.88
-124.07
-114.93
-91.10
-53.34
-7.12
39.79
80.72
112.17
135.05
152.89
169.27
186.06
202.01
214.66
222.59
226.97
230.49
236.70
248.21
266.14
290.22
317.86
345.23
368.13
383.30
385.10
371.36
342.98
303.53
257.97
210.06
162.13
115.00
69.22
24.87
-16.88
-54.46
-85.70
-108.55
-123.35
-132.11
-138.28
-144.46
-154.24
-169.43
-190.21
-214.73
-240.36
-267.33
-296.00
-324.73
-345.97
-352.86
-339.72
-305.08
-251.01
-183.31
-113.76
-54.03
-12.64
10.68
15.41
2.27
-28.02
-71.22
-120.91
-174.90
-231.50
-288.68
-337.41
-374.49
-399.36
-415.96
-427.21
-406.14
-336.49
-219.11
-106.50
-13.83
56.41
117.32
169.49
211.30
241.24
254.68
249.11
224.98
192.32
155.22
115.12
67.13
8.29
-60.98
-140.02
-225.13
-310.40
-383.00
-436.94
-445.57
-395.97
-292.81
-158.87
-24.43
88.69
163.93
213.49
247.47
271.84
284.93
284.04
267.83
236.53
192.59
138.79
79.80
19.09
-38.63
-89.85
-129.72
-152.89
-155.57
-137.74
-105.22
-66.53
-32.59
-10.80
-4.14
-10.13
-23.11
-38.02
-50.82
-59.95
-64.45
-64.25
-58.99
-48.60
-33.79
-15.91
3.52
23.12
42.19
61.33
82.22
104.06
127.16
151.96
179.14
209.69
244.21
281.68
318.78
350.06
369.47
373.23
360.91
335.64
302.73
267.51
233.63
202.80
175.52
151.73
131.36
113.59
96.67
78.56
58.20
36.29
15.16
-3.16
-18.60
-33.48
-51.39
-74.68
-102.02
-127.96
-144.85
-146.42
-130.77
-101.40
-65.75
-32.20
-7.13
6.85
10.19
4.53
-8.96
-29.86
-57.11
-87.64
-115.86
-135.31
-141.12
-132.40
-112.85
-89.03
-67.64
-52.82
-45.23
-42.97
-43.52
-45.88
-50.97
-60.29
-74.17
-90.55
-105.08
-113.11
-112.04
-102.90
-89.94
-78.61
-72.73
-72.46
-74.24
-72.54
-62.55
-42.70
-15.32
14.39
40.50
58.29
65.54
62.32
50.44
32.47
11.29
-9.89
-27.32
-37.04
-35.96
-22.89
0.86
31.89
65.95
99.30
129.08
153.15
169.37
175.63
170.34
153.52
127.33
95.73
63.37
34.54
12.29
-1.89
-8.20
-8.98
-8.32
-10.98
-20.06
-34.87
-50.14
-57.79
-50.66
-26.45
10.54
51.10
84.95
104.79
108.17
96.92
75.30
48.36
21.14
-1.28
-14.17
-14.81
-4.33
11.39
23.02
21.16
0.31
-38.69
-89.06
-140.93
-185.21
-216.39
-233.24
-237.99
-234.48
-226.79
-218.57
-212.87
-211.90
-216.27
-224.10
-230.92
-230.83
-218.68
-192.19
-152.88
-105.27
-54.74
-5.15
42.59
90.06
139.09
189.57
237.85
277.29
300.36
301.39
278.88
236.40
181.72
124.57
74.06
36.49
14.47
7.33
12.23
25.46
43.36
62.62
80.30
93.71
100.47
98.79
87.97
69.08
44.85
19.15
-4.19
-22.66
-35.91
-45.65
-54.70
-65.51
-78.68
-92.33
-102.74
-105.95
-99.67
-84.80
-65.40
-47.25
-35.78
-34.18
-42.77
-59.54
-81.57
-106.40
-132.53
-159.04
-184.62
-207.02
-223.20
-230.37
-227.30
-215.12
-197.11
-177.73
-161.20
-150.35
-146.32
-148.40
-154.49
-161.71
-166.90
-167.08
-159.78
-143.59
-118.93
-88.72
-58.35
-34.43
-22.71
-25.51
-40.43
-60.69
-77.60
-83.68
-75.28
-53.24
-21.74
14.00
49.91
84.02
116.15
146.88
176.82
206.26
235.34
264.30
293.55
323.54
354.07
383.67
409.39
427.06
432.42
422.71
397.88
360.77
315.96
267.97
219.58
171.60
123.86
76.74
32.19
-6.68
-37.09
-58.15
-71.27
-79.47
-85.73
-91.25
-94.80
-93.64
-85.38
-69.88
-49.99
-30.46
-16.61
-12.63
-20.34
-39.01
-65.83
-97.16
-129.57
-160.46
-187.30
-208.00
-220.82
-224.79
-220.12
-208.55
-193.57
-179.74
-171.17
-167.68
-166.05
-161.07
-148.01
-124.52
-91.25
-51.33
-9.28
30.39
68.37
106.01
143.70
179.76
211.57
237.75
259.19
278.25
297.08
323.33
362.21
414.46
475.54
537.73
593.86
639.49
673.08
695.13
716.60
748.16
796.28
860.32
934.24
1011.10
1086.38
1158.71
1171.66
1087.05
894.99
624.18
326.40
48.45
-184.01
-365.21
-500.87
-600.95
-666.43
-697.82
-698.19
-675.82
-642.24
-607.94
-579.41
-559.02
-546.62
-534.21
-514.70
-484.85
-447.11
-407.38
-371.40
-342.22
-320.26
-304.40
-289.05
-269.74
-244.68
-215.71
-186.41
-159.94
-137.73
-119.67
-104.74
-89.59
-71.56
-48.80
-24.81
-5.35
2.97
-4.75
-29.47
-67.06
-108.72
-144.35
-165.13
-168.44
-156.88
-136.09
-111.78
-88.38
-67.17
-49.24
-35.91
-28.40
-27.42
-31.50
-37.25
-40.78
-39.52
-33.15
-24.11
-15.94
-11.40
-11.67
-15.80
-21.73
-27.51
-32.01
-34.62
-35.07
-33.03
-28.30
-21.30
-12.91
-4.03
4.82
13.61
22.68
31.98
40.69
47.46
51.00
50.98
48.02
43.15
36.89
28.58
17.35
2.58
-15.25
-34.38
-52.16
-65.96
-74.20
-76.59
-73.95
-67.53
-58.64
-48.39
-37.81
-27.80
-19.17
-12.33
-7.12
-2.78
1.62
6.65
12.20
17.50
21.59
23.64
23.34
20.87
16.71
11.44
5.57
-0.34
-5.77
-10.18
-13.27
-15.10
-16.15
-17.12
-18.58
-20.70
-23.08
-24.95
-25.42
-23.82
-20.00
-14.30
-7.50
-0.56
5.60
10.35
13.41
14.95
15.55
16.11
17.71
21.30
27.46
36.19
46.92
58.77
70.84
82.46
93.23
102.90
111.06
116.99
119.64
117.88
110.87
98.39
81.02
60.02
37.13
14.15
-7.44
-26.76
-43.70
-58.69
-72.44
-85.39
-97.46
-107.87
-115.53
-119.33
-118.65
-113.52
-104.54
-92.64
-78.77
-63.76
-48.44
-33.70
-20.49
-9.77
-2.17
2.19
3.86
3.91
3.65
4.19
6.07
9.06
12.22
14.28
14.22
11.70
7.30
2.30
-1.84
-4.00
-3.79
-1.53
1.92
5.63
8.79
10.98
12.14
12.47
12.34
12.18
12.25
12.71
13.53
14.57
15.64
16.49
16.83
16.33
14.67
11.66
7.41
2.41
-2.56
-6.66
-9.23
-9.98
-9.08
-6.98
-4.33
-1.67
0.58
2.11
2.76
2.47
1.31
-0.52
-2.72
-4.88
-6.60
-7.55
-7.52
-6.35
-4.03
-0.70
3.30
7.48
11.19
13.89
15.22
15.09
13.75
11.68
9.37
7.28
5.73
4.85
4.65
5.09
6.01
7.24
8.52
9.52
9.90
9.42
8.01
5.86
3.29
0.63
-1.92
-4.35
-6.72
-9.06
-11.21
-12.91
-13.94
-14.22
-13.93
-13.30
-12.54
-11.69
-10.59
-9.00
-6.80
-4.06
-1.03
1.95
4.49
6.36
7.47
7.84
7.66
7.06
6.13
4.89
3.30
1.41
-0.62
-2.47
-3.79
-4.28
-3.87
-2.73
-1.25
0.10
0.89
0.83
-0.15
-1.79
-3.59
-4.91
-5.22
-4.34
-2.55
-0.53
0.95
1.41
0.79
-0.44
-1.63
-2.24
-2.03
-1.22
-0.27
0.39
0.49
0.04
-0.74
-1.60
-2.38
-2.95
-3.30
-3.40
-3.22
-2.75
-2.10
-1.43
-1.00
-1.07
-1.77
-3.10
-4.80
-6.58
-8.10
-9.16
-9.77
-10.04
-10.20
-10.33
-10.36
-10.08
-9.20
-7.58
-5.27
-2.43
0.66
3.67
6.35
8.44
9.71
10.06
9.54
8.36
6.99
5.89
5.41
5.57
6.15
6.73
6.99
6.79
6.17
5.34
4.54
3.89
3.38
2.89
2.25
1.36
0.17
-1.31
-3.03
-4.98
-7.15
-9.44
-11.61
-13.30
-14.04
-13.46
-11.37
-7.95
-3.65
0.89
5.21
8.94
11.97
14.28
15.86
16.70
16.76
16.09
14.80
13.13
11.23
9.20
7.08
4.89
2.74
0.79
-0.75
-1.76
-2.19
-2.16
-1.86
-1.47
-1.13
-0.91
-0.92
-1.28
-2.16
-3.67
-5.80
-8.37
-10.97
-13.15
-14.44
-14.63
-13.72
-11.97
-9.72
-7.23
-4.61
-1.77
1.31
4.59
7.84
10.71
12.89
14.21
14.77
14.82
14.68
14.53
14.41
14.26
14.02
13.67
13.27
12.93
12.79
12.92
13.29
13.75
14.12
14.23
14.03
13.60
13.16
12.94
13.07
13.40
13.58
13.25
12.28
10.81
9.13
7.33
5.28
2.67
-0.48
-3.57
-5.55
-5.52
-3.36
-0.07
2.65
3.32
1.46
-2.01
-5.33
-6.88
-6.17
-3.85
-1.24
0.56
1.07
0.34
-1.39
-4.13
-8.21
-13.99
-21.38
-29.77
-38.15
-45.47
-50.89
-53.91
-54.30
-51.97
-46.89
-39.26
-29.63
-18.96
-8.35
1.14
8.77
14.19
17.40
18.66
18.29
16.53
13.58
9.77
5.59
1.71
-1.12
-2.23
-1.21
1.96
6.96
13.12
19.68
25.97
31.52
36.10
39.68
42.28
43.84
44.23
43.32
41.13
38.00
34.48
31.13
28.32
26.03
23.95
21.67
18.98
15.95
12.84
9.76
6.57
2.86
-1.77
-7.28
-13.09
-18.22
-21.88
-23.94
-25.14
-26.69
-29.59
-34.05
-39.27
-43.85
-46.52
-46.76
-44.93
-41.94
-38.53
-34.85
-30.51
-25.06
-18.49
-11.47
-4.98
0.16
3.70
6.01
7.71
9.24
10.63
11.56
11.70
10.99
9.63
8.02
6.49
5.27
4.52
4.42
5.14
6.83
9.53
13.20
17.78
23.14
28.99
34.83
40.08
44.25
47.33
49.78
52.24
54.94
57.23
57.70
54.72
47.22
34.98
18.53
-1.24
-23.45
-47.02
-70.37
-91.27
-107.30
-116.71
-119.12
-115.86
-109.31
-101.89
-95.17
-89.49
-84.36
-79.00
-72.97
-66.26
-59.31
-52.67
-46.76
-41.66
-37.08
-32.60
-27.86
-22.75
-17.47
-12.41
-7.65
-3.02
1.87
7.12
12.20
16.03
17.45
15.80
11.31
5.08
-1.37
-6.67
-9.92
-10.76
-9.19
-5.53
-0.30
5.70
11.64
16.77
20.72
23.70
26.31
29.30
33.17
38.03
43.55
49.23
54.60
59.43
63.82
67.91
71.82
75.38
78.19
79.75
79.54
77.23
72.60
65.59
56.16
44.59
31.58
18.43
6.75
-2.00
-6.93
-7.87
-5.20
0.36
8.18
17.89
29.31
42.39
56.80
71.77
85.68
96.37
101.50
99.47
90.07
74.79
56.35
37.64
20.73
6.28
-6.11
-17.23
-27.47
-36.64
-44.24
-49.93
-53.93
-56.84
-59.34
-61.72
-63.72
-64.83
-64.58
-62.92
-60.25
-57.24
-54.44
-52.01
-49.62
-46.55
-42.21
-36.32
-29.24
-21.76
-14.97
-9.77
-6.65
-5.53
-5.89
-6.98
-8.11
-8.94
-9.40
-9.71
-10.07
-10.63
-11.30
-11.91
-12.29
-12.39
-12.27
-12.03
-11.66
-11.05
-10.08
-8.75
-7.25
-5.97
-5.23
-5.23
-5.83
-6.64
-7.10
-6.66
-5.03
-2.12
1.86
6.48
11.10
14.98
17.47
18.18
17.10
14.58
11.30
7.99
5.26
3.39
2.36
1.97
1.94
2.06
2.17
2.23
2.15
1.83
1.12
-0.06
-1.62
-3.28
-4.66
-5.49
-5.64
-5.37
-5.09
-5.23
-6.08
-7.52
-9.22
-10.71
-11.63
-11.65
-10.71
-8.78
-5.91
-2.32
1.65
5.50
8.73
10.94
12.01
12.02
11.30
10.24
9.25
8.55
8.23
8.23
8.44
8.72
8.94
9.05
8.99
8.72
8.16
7.23
5.96
4.45
2.90
1.44
0.20
-0.87
-1.88
-2.93
-4.08
-5.31
-6.59
-7.83
-9.01
-10.07
-10.94
-11.58
-11.99
-12.20
-12.26
-12.18
-11.77
-10.71
-8.64
-5.36
-1.04
3.76
8.22
11.63
13.53
13.96
13.26
11.98
10.55
9.11
7.67
6.11
4.49
2.99
1.97
1.76
2.47
3.86
5.41
6.50
6.66
5.79
4.15
2.22
0.50
-0.73
-1.43
-1.76
-1.91
-2.01
-2.08
-2.09
-1.98
-1.85
-1.90
-2.32
-3.35
-5.04
-7.34
-10.00
-12.68
-14.96
-16.44
-16.74
-15.63
-13.06
-9.24
-4.66
0.06
4.27
7.53
9.71
11.00
11.70
12.06
12.21
12.18
11.93
11.48
10.90
10.32
9.85
9.55
9.40
9.39
9.47
9.54
9.49
9.23
8.71
7.99
7.23
6.51
5.85
5.14
4.20
2.93
1.36
-0.27
-1.69
-2.63
-3.08
-3.21
-3.39
-3.92
-4.94
-6.33
-7.77
-8.90
-9.43
-9.21
-8.21
-6.49
-4.09
-1.01
2.60
6.45
10.04
12.79
14.27
14.36
13.27
11.44
9.36
7.35
5.51
3.80
2.09
0.39
-1.22
-2.60
-3.71
-4.61
-5.49
-6.55
-7.87
-9.36
-10.80
-11.94
-12.61
-12.85
-12.88
-12.96
-13.36
-14.12
-15.23
-16.53
-17.88
-19.18
-20.41
-21.62
-22.86
-24.20
-25.51
-26.54
-26.81
-25.82
-23.18
-18.83
-13.16
-6.92
-0.96
4.02
7.65
9.89
10.87
10.66
9.19
6.37
2.24
-2.84
-8.24
-13.20
-17.23
-20.10
-21.86
-22.63
-22.55
-21.79
-20.51
-18.81
-16.69
-14.09
-10.81
-6.43
-0.46
7.36
16.85
27.20
37.25
45.76
51.58
54.07
53.40
50.43
46.19
41.36
35.96
29.54
21.57
11.29
-1.62
-16.44
-31.43
-44.48
-53.80
-58.02
-55.91
-46.28
-29.33
-6.08
22.37
55.47
92.87
133.85
177.25
221.74
265.41
303.46
329.91
340.14
332.93
310.14
275.10
231.57
183.21
132.93
79.71
20.66
-46.33
-120.82
-200.76
-284.12
-368.98
-452.94
-515.11
-534.25
-503.05
-435.28
-354.07
-277.21
-212.64
-160.71
-117.84
-79.95
-46.72
-20.24
-2.11
8.93
16.13
22.16
28.39
35.73
44.26
52.44
59.49
66.77
77.64
94.46
113.85
129.86
136.79
132.03
116.06
92.30
65.24
38.64
13.82
-9.72
-33.29
-55.94
-75.34
-90.33
-102.11
-114.10
-130.12
-153.00
-183.25
-217.55
-249.89
-273.85
-285.01
-281.77
-264.69
-235.18
-191.86
-137.40
-75.88
-12.06
49.38
104.33
149.96
185.30
211.33
229.22
239.98
246.05
251.25
259.87
274.28
293.74
314.37
330.81
336.79
328.71
308.67
283.62
262.20
249.34
244.32
242.39
237.84
224.23
197.55
157.23
104.63
42.34
-27.77
-103.80
-186.26
-262.35
-316.16
-339.20
-335.42
-320.24
-300.69
-277.80
-250.04
-214.26
-166.05
-107.53
-44.21
16.92
68.92
108.45
135.72
153.31
165.48
177.59
182.96
180.88
177.24
179.37
190.73
217.72
251.01
278.06
290.80
288.17
268.08
237.65
204.28
172.40
141.72
106.86
58.16
-12.17
-106.31
-217.96
-335.84
-449.80
-552.18
-638.11
-678.72
-654.87
-572.03
-458.50
-343.48
-242.61
-160.22
-94.34
-40.87
3.45
37.10
58.19
67.49
69.66
70.80
74.74
83.55
96.78
111.81
121.92
120.96
106.70
81.84
51.63
20.43
-9.28
-33.80
-50.19
-57.45
-54.63
-40.78
-16.34
15.17
46.98
72.06
86.24
89.50
84.06
72.43
55.83
33.81
5.14
-29.55
-66.27
-98.24
-118.59
-123.45
-114.07
-95.85
-76.21
-61.14
-52.64
-48.19
-42.28
-29.71
-7.17
22.30
51.08
70.78
76.52
68.86
53.01
35.23
19.44
6.54
-5.74
-19.78
-35.97
-52.22
-65.43
-73.46
-76.25
-76.56
-77.04
-79.93
-85.35
-91.33
-94.85
-93.49
-86.59
-75.48
-62.91
-50.56
-39.26
-28.26
-15.47
1.45
24.38
54.41
92.35
132.19
169.61
200.07
219.62
226.17
220.34
205.57
186.97
169.00
153.17
138.20
120.02
94.83
61.90
24.24
-12.73
-43.69
-65.50
-77.93
-81.95
-78.55
-67.04
-45.03
-10.18
37.74
95.75
157.95
216.76
264.77
296.28
309.04
304.75
287.61
262.53
233.35
202.23
169.86
135.77
99.13
59.92
18.85
-23.91
-69.45
-119.48
-174.58
-227.12
-265.47
-281.97
-276.99
-256.45
-227.74
-196.99
-167.81
-141.61
-118.37
-98.53
-82.96
-72.09
-65.05
-60.16
-55.51
-49.39
-40.73
-28.96
-14.91
-0.16
13.96
26.95
38.95
50.19
60.85
70.43
77.95
81.72
79.94
71.61
57.11
38.24
17.87
-1.35
-17.51
-29.79
-38.59
-45.14
-50.71
-55.87
-60.26
-63.01
-63.30
-60.83
-56.25
-51.13
-47.42
-46.62
-48.96
-53.17
-57.10
-58.83
-57.26
-52.79
-47.08
-42.28
-40.23
-41.90
-47.23
-54.96
-62.49
-66.00
-61.29
-45.42
-18.38
16.29
52.11
82.30
102.45
112.02
114.13
113.53
114.19
117.36
121.17
121.53
114.13
96.50
69.17
35.64
1.20
-29.02
-51.92
-67.44
-77.70
-85.25
-91.43
-95.91
-97.71
-96.43
-93.35
-91.27
-91.88
-95.29
-99.76
-103.07
-103.55
-100.38
-93.11
-80.57
-60.72
-31.99
4.83
45.68
83.96
113.32
130.80
137.77
138.22
135.35
128.96
116.12
94.90
67.99
43.32
30.21
33.50
49.36
66.88
73.45
61.79
34.04
-0.07
-29.13
-46.23
-51.41
-49.42
-45.40
-41.53
-36.93
-30.01
-20.91
-11.88
-6.01
-5.46
-10.33
-19.20
-29.80
-39.66
-45.93
-45.06
-33.25
-7.93
30.76
79.28
131.73
181.38
221.84
247.81
255.00
240.89
205.24
151.38
86.60
20.71
-35.63
-73.90
-91.84
-94.43
-91.24
-92.10
-103.24
-125.83
-157.52
-195.01
-235.88
-278.46
-319.77
-353.95
-372.59
-367.69
-335.20
-277.10
-201.06
-118.20
-40.20
22.62
62.40
74.01
55.42
9.20
-56.71
-129.41
-193.69
-236.02
-248.21
-229.19
-184.54
-124.11
-58.45
4.13
59.07
105.29
143.87
176.57
205.05
230.96
256.72
285.61
320.64
362.38
406.95
445.78
467.78
463.42
428.85
367.79
290.29
208.59
132.66
67.19
11.43
-38.41
-86.48
-135.60
-187.20
-241.78
-298.95
-356.64
-410.28
-453.06
-477.56
-478.76
-456.47
-415.77
-365.33
-314.19
-269.09
-233.20
-206.83
-187.96
-174.36
-164.29
-156.56
-150.03
-143.43
-135.47
-125.31
-112.83
-96.81
-76.35
-50.95
-20.75
13.55
50.94
90.36
130.64
170.22
209.95
250.38
291.13
330.45
365.55
393.79
413.60
424.81
428.38
429.59
433.84
445.23
465.33
493.44
527.95
567.80
612.97
641.19
635.42
586.83
500.00
390.20
274.80
166.20
70.50
-10.54
-77.39
-127.74
-160.22
-175.64
-177.94
-173.26
-167.66
-165.10
-166.69
-171.52
-175.02
-173.03
-163.20
-145.94
-124.42
-103.72
-89.63
-87.48
-100.55
-126.57
-159.03
-189.00
-208.56
-213.98
-206.94
-193.14
-178.90
-167.69
-157.43
-142.60
-117.77
-81.20
-36.74
7.42
41.84
59.47
57.67
38.93
9.28
-24.16
-54.79
-77.39
-88.01
-84.10
-64.85
-32.31
8.18
48.89
82.01
102.23
108.26
102.55
89.33
72.77
55.41
38.07
20.85
3.89
-12.02
-25.92
-36.94
-44.41
-46.87
-41.98
-27.33
-1.93
32.22
69.86
103.49
126.92
134.87
125.95
102.93
71.38
37.26
4.86
-24.26
-51.38
-79.52
-111.93
-149.60
-189.90
-226.11
-248.59
-247.89
-218.73
-163.35
-92.26
-21.73
31.52
55.84
48.05
13.65
-36.03
-88.29
-132.94
-164.39
-181.48
-185.50
-178.11
-159.91
-130.27
-88.40
-35.38
24.71
84.91
137.08
174.53
194.09
196.31
183.92
159.71
125.22
81.26
29.75
-24.38
-73.02
-107.01
-119.72
-110.04
-83.37
-49.70
-19.85
-1.66
2.03
-6.99
-24.36
-45.68
-68.06
-90.16
-111.41
-131.23
-148.90
-163.94
-176.17
-185.19
-189.53
-186.03
-170.50
-139.71
-93.85
-38.07
18.19
63.92
90.00
91.82
69.84
28.58
-25.24
-84.17
-140.68
-187.42
-217.72
-226.66
-212.40
-176.96
-125.80
-66.15
-4.76
53.89
108.14
158.31
204.86
246.70
280.59
302.04
307.37
295.86
270.58
237.22
201.94
169.24
141.34
119.27
104.72
101.15
113.08
143.78
192.42
252.94
314.87
366.27
397.33
402.68
382.02
338.92
279.23
209.79
138.17
72.69
21.80
-7.49
-11.98
5.79
37.38
70.61
93.43
97.79
81.65
48.57
5.29
-41.49
-87.23
-130.46
-172.31
-215.14
-260.79
-308.99
-356.10
-395.19
-417.80
-416.72
-389.14
-338.46
-273.85
-207.61
-151.35
-112.86
-94.89
-95.67
-110.46
-132.97
-156.06
-171.98
-173.00
-152.95
-109.35
-45.16
31.01
106.64
168.72
207.69
220.25
209.74
184.56
154.83
129.15
112.24
104.43
102.28
100.30
93.22
77.99
55.42
30.42
11.02
5.80
20.82
57.22
110.69
172.68
232.95
282.41
314.69
326.67
317.97
290.11
245.83
188.85
123.86
56.71
-5.79
-56.74
-90.61
-104.88
-100.99
-84.00
-61.01
-39.20
-24.12
-18.95
-24.49
-39.64
-61.75
-86.87
-110.53
-128.79
-139.40
-142.13
-138.11
-128.35
-112.53
-89.01
-56.33
-15.16
30.50
73.80
107.04
124.16
122.36
102.26
66.66
19.28
-35.84
-93.78
-148.29
-192.19
-219.14
-226.19
-215.49
-194.12
-171.67
-156.68
-153.32
-160.88
-175.46
-193.10
-212.20
-234.53
-263.80
-302.88
-351.35
-403.69
-450.50
-481.48
-489.12
-471.50
-433.15
-383.19
-331.95
-287.81
-254.14
-230.53
-214.95
-205.69
-202.04
-203.45
-208.42
-213.83
-215.80
-208.47
-187.69
-152.61
-105.82
-52.00
4.23
59.43
111.66
159.48
205.67
252.70
300.99
348.53
392.07
428.96
457.89
478.87
492.35
504.47
521.10
545.27
576.19
610.57
645.36
679.68
714.83
728.26
704.51
638.74
540.19
424.84
306.42
194.42
96.02
20.59
-35.77
-73.34
-93.55
-100.44
-100.31
-99.90
-104.84
-118.72
-143.91
-182.58
-230.71
-282.00
-328.79
-363.36
-379.17
-373.00
-346.87
-308.98
-272.22
-246.33
-236.59
-242.00
-255.80
-267.95
-268.59
-251.07
-213.53
-158.81
-91.05
-16.24
58.15
123.63
172.18
198.33
201.25
185.50
160.11
136.83
126.04
133.68
159.93
199.85
245.29
287.33
318.10
331.96
326.21
301.04
258.85
203.32
138.49
68.78
-0.35
-61.72
-106.83
-127.90
-121.09
-89.03
-41.07
9.42
49.57
71.18
72.48
57.02
30.85
-0.19
-31.77
-60.55
-83.33
-96.69
-98.00
-86.91
-66.37
-42.28
-21.90
-11.44
-13.84
-27.63
-47.09
-63.84
-69.43
-58.11
-28.77
14.52
63.61
108.70
141.00
154.94
149.02
125.53
89.34
46.49
3.26
-34.65
-62.57
-77.66
-79.57
-70.86
-56.55
-42.92
-35.72
-38.65
-52.51
-75.46
-104.01
-134.14
-162.16
-185.25
-201.54
-210.40
-212.52
-209.94
-205.48
-201.67
-199.39
-196.93
-190.08
-173.46
-142.72
-96.78
-39.11
22.70
79.06
121.25
143.95
146.29
131.41
104.84
72.75
40.88
14.27
-2.74
-6.99
2.48
23.44
50.62
76.94
96.15
104.94
103.60
94.82
81.36
64.48
43.44
16.66
-16.95
-57.21
-103.25
-154.52
-211.48
-274.51
-341.92
-408.33
-464.81
-501.32
-510.52
-490.90
-447.52
-389.98
-328.46
-269.89
-216.36
-166.18
-116.69
-67.13
-19.64
22.07
55.22
80.05
100.06
120.35
145.22
176.57
213.61
254.19
296.36
338.64
379.22
414.67
439.46
447.11
432.69
395.14
338.37
270.28
200.15
135.94
82.25
40.02
7.67
-17.10
-35.82
-48.54
-54.08
-51.02
-38.91
-19.08
5.25
29.47
48.51
57.63
53.27
33.60
-0.87
-46.90
-98.47
-147.39
-184.78
-203.10
-198.18
-170.48
-124.96
-69.68
-13.61
35.36
71.83
93.07
98.66
90.10
70.38
43.65
14.68
-11.96
-32.95
-46.74
-53.65
-55.32
-54.00
-51.89
-50.56
-50.52
-50.76
-48.57
-39.85
-20.41
12.28
57.27
109.38
159.92
198.85
217.51
211.11
179.89
129.01
67.33
5.55
-45.88
-78.75
-88.67
-76.12
-46.08
-6.45
34.71
71.86
103.30
130.51
155.67
179.06
197.63
205.74
197.49
169.56
122.86
62.66
-2.87
-64.85
-115.98
-152.25
-173.83
-184.50
-189.79
-194.18
-198.84
-200.77
-194.20
-173.39
-135.62
-82.78
-20.94
41.75
97.63
141.31
170.22
184.03
183.87
171.93
151.48
127.06
104.16
88.13
82.77
88.82
103.48
121.28
135.82
141.83
136.63
120.36
95.20
64.20
30.30
-4.17
-37.08
-66.04
-88.29
-101.35
-104.00
-97.24
-84.23
-69.57
-57.52
-50.13
-46.20
-41.66
-31.28
-10.83
21.21
63.06
109.68
154.34
190.60
213.86
221.81
213.98
191.22
155.73
111.33
62.64
15.29
-24.37
-50.09
-57.54
-45.94
-18.66
17.80
55.47
85.11
98.33
90.05
60.39
14.41
-39.76
-92.89
-136.00
-162.02
-169.43
-162.70
-150.82
-144.07
-151.17
-177.54
-224.00
-286.19
-344.56
-376.28
-367.21
-322.01
-257.96
-191.06
-129.24
-73.92
-23.66
22.81
63.66
95.67
116.78
128.46
135.04
141.57
150.46
161.26
171.65
177.04
172.77
156.14
128.18
92.87
56.76
24.76
-0.59
-18.84
-31.75
-41.85
-51.00
-59.28
-65.30
-67.71
-66.48
-62.72
-58.08
-54.53
-53.52
-55.30
-58.70
-61.70
-62.60
-61.04
-57.82
-54.27
-51.76
-51.01
-51.71
-52.71
-52.82
-51.38
-48.89
-46.59
-45.83
-47.59
-52.34
-60.19
-70.65
-82.13
-91.44
-94.26
-86.48
-66.35
-36.01
-1.30
30.28
52.73
63.58
64.41
59.12
51.62
43.86
35.68
26.08
14.53
1.87
-10.47
-21.30
-30.48
-38.90
-47.50
-56.44
-64.32
-68.66
-66.66
-56.41
-37.73
-12.46
16.05
43.88
67.77
86.34
99.98
110.14
118.41
125.60
131.43
134.68
134.82
131.22
124.66
116.78
109.46
104.15
101.80
102.78
106.59
111.58
114.37
110.62
96.34
70.14
34.58
-4.10
-38.23
-61.88
-73.10
-74.30
-70.16
-65.13
-61.41
-58.77
-55.84
-51.61
-46.45
-41.77
-39.03
-38.72
-40.24
-42.10
-42.61
-40.81
-36.64
-31.07
-25.32
-20.27
-15.86
-11.15
-4.70
4.14
14.48
24.29
31.77
36.84
41.56
49.23
62.06
79.34
96.98
109.03
111.79
104.84
90.70
72.39
51.48
26.49
-4.13
-39.83
-76.62
-107.89
-127.68
-133.49
-127.38
-114.54
-100.73
-89.71
-82.40
-77.67
-73.55
-68.75
-62.86
-56.26
-49.44
-43.12
-37.91
-34.28
-32.99
-35.07
-41.80
-53.86
-70.16
-87.12
-99.23
-100.71
-88.25
-62.96
-30.30
2.01
27.54
43.84
52.94
59.48
68.00
80.43
95.49
110.11
121.55
129.19
134.38
139.00
143.69
147.34
147.65
142.53
132.19
119.42
108.32
101.90
99.76
97.64
89.51
70.59
39.73
-0.47
-45.19
-89.88
-130.11
-162.13
-182.85
-189.13
-178.29
-150.14
-109.16
-65.02
-30.19
-15.48
-26.08
-59.53
-107.36
-159.15
-207.54
-250.31
-289.22
-326.31
-360.35
-386.14
-396.76
-387.69
-360.29
-322.24
-284.20
-255.01
-238.07
-230.65
-226.23
-218.40
-203.80
-182.99
-159.30
-136.39
-116.17
-98.17
-80.08
-59.11
-33.29
-2.55
31.50
66.25
99.32
129.62
157.75
185.68
215.79
249.76
288.03
330.01
374.68
420.84
466.61
508.70
542.24
562.15
565.31
552.75
530.04
505.25
485.21
472.20
462.91
450.30
427.38
390.46
340.38
281.36
218.39
154.96
92.53
31.57
-26.76
-79.51
-122.32
-151.15
-164.52
-164.70
-157.21
-148.39
-142.49
-139.75
-136.50
-127.26
-107.79
-77.32
-39.11
0.76
35.41
58.80
66.80
57.67
32.39
-4.94
-47.28
-85.69
-111.76
-120.25
-111.11
-89.34
-62.89
-39.48
-23.74
-16.15
-14.24
-14.97
-16.95
-21.17
-30.04
-45.34
-66.87
-91.96
-116.64
-137.21
-151.72
-160.16
-163.77
-163.85
-161.07
-155.30
-146.23
-134.09
-119.94
-105.36
-91.66
-78.93
-65.48
-48.11
-23.33
10.87
53.35
99.28
140.76
168.90
176.51
160.60
123.72
73.60
21.04
-23.23
-51.45
-60.69
-52.93
-33.74
-10.05
12.26
29.78
42.05
50.53
57.12
62.52
65.51
63.30
52.96
33.06
4.96
-27.19
-57.67
-81.06
-93.94
-95.78
-88.75
-76.73
-64.34
-55.55
-52.90
-57.04
-66.79
-79.88
-93.90
-107.26
-119.15
-128.91
-134.96
-134.16
-122.26
-95.34
-51.81
6.12
72.11
137.01
190.85
225.17
234.78
218.75
180.38
126.42
65.98
8.88
-36.03
-62.57
-68.49
-55.97
-30.76
-0.39
27.94
49.01
60.31
61.42
53.15
36.98
14.98
-10.09
-35.00
-56.84
-73.90
-86.10
-94.51
-100.08
-102.66
-101.15
-94.66
-83.67
-70.54
-58.71
-51.32
-49.85
-53.64
-60.46
-67.40
-71.67
-70.70
-62.08
-43.67
-14.42
24.35
68.12
109.06
137.93
146.67
131.16
92.54
36.57
-28.90
-97.07
-164.05
-228.45
-289.11
-342.76
-383.47
-404.47
-401.46
-375.23
-331.96
-280.86
-230.51
-185.92
-147.67
-113.47
-80.55
-47.64
-15.23
15.49
44.22
72.68
104.11
141.69
186.34
235.01
280.28
312.04
320.59
300.13
251.20
181.11
102.22
28.70
-27.06
-57.06
-58.70
-34.25
10.36
67.07
126.77
180.19
218.81
236.03
228.62
197.95
150.20
94.77
41.23
-4.10
-40.16
-70.52
-100.54
-133.66
-168.99
-201.44
-224.15
-231.81
-223.01
-200.74
-170.94
-140.12
-113.27
-93.10
-80.20
-73.64
-71.83
-72.86
-74.76
-75.56
-73.69
-68.27
-59.25
-47.37
-33.87
-20.25
-7.93
2.11
9.69
15.59
21.35
28.59
38.06
49.09
59.37
66.22
68.42
67.64
68.33
76.02
95.03
126.72
169.92
221.20
276.57
332.64
386.84
436.92
480.46
515.24
540.01
555.91
564.51
567.11
564.61
558.02
548.65
537.63
525.45
511.25
494.43
472.54
442.74
403.74
357.01
305.93
253.77
202.31
151.51
102.26
53.81
4.42
-47.27
-101.34
-156.66
-211.74
-265.05
-326.81
-393.97
-454.51
-495.78
-512.75
-508.40
-489.24
-461.77
-430.99
-400.11
-368.91
-337.70
-307.92
-281.20
-258.24
-238.64
-221.53
-206.03
-191.37
-175.67
-158.48
-140.92
-124.69
-110.78
-99.25
-89.59
-81.02
-72.65
-62.84
-50.97
-37.37
-22.98
-8.49
5.84
19.90
33.58
47.00
59.89
71.29
79.39
82.19
78.18
66.75
48.41
24.69
-1.89
-28.42
-52.78
-74.11
-92.62
-109.05
-124.17
-138.21
-151.84
-162.79
-169.78
-172.17
-170.27
-165.21
-158.54
-151.88
-146.82
-144.36
-144.83
-147.76
-150.92
-150.48
-142.46
-124.82
-99.28
-71.20
-47.26
-33.18
-31.60
-41.01
-57.03
-74.76
-90.77
-103.99
-114.82
-123.12
-128.37
-129.85
-127.15
-120.72
-111.85
-101.79
-90.69
-82.40
-77.47
-75.20
-74.58
-74.86
-75.98
-78.57
-83.50
-91.31
-101.91
-113.61
-124.32
-131.98
-135.02
-132.55
-124.38
-110.75
-92.09
-68.83
-40.86
-8.44
27.54
65.32
102.39
135.87
163.01
181.65
190.63
190.69
183.32
170.17
152.77
132.63
111.54
91.67
75.45
65.47
64.69
75.07
96.84
128.18
165.79
205.33
242.24
272.34
292.46
302.30
303.59
299.57
294.39
292.14
294.87
300.90
304.77
299.18
281.15
250.49
208.84
158.72
103.74
48.48
-2.17
-43.86
-73.51
-83.82
-72.43
-44.76
-12.56
12.71
24.77
23.23
11.55
-5.35
-12.19
2.57
41.52
98.58
165.37
235.84
306.43
374.85
439.16
511.40
600.36
704.76
813.36
914.00
1000.33
1071.94
1131.10
1096.18
924.02
633.31
294.78
-22.53
-282.29
-475.32
-606.17
-685.58
-727.81
-734.85
-710.44
-663.96
-609.65
-558.85
-516.03
-481.26
-453.39
-431.80
-406.13
-369.01
-320.47
-268.50
-222.19
-186.90
-164.52
-155.18
-158.61
-167.67
-177.41
-184.38
-190.31
-198.12
-208.71
-220.48
-229.77
-232.02
-220.13
-190.21
-144.75
-92.50
-43.78
-5.89
18.77
32.15
38.15
41.17
43.58
45.26
44.79
42.05
38.95
38.21
41.63
49.02
58.16
65.58
67.20
59.62
40.81
11.46
-25.04
-63.23
-97.27
-123.20
-138.70
-143.72
-139.81
-128.76
-111.77
-89.21
-61.41
-29.73
2.20
28.49
42.38
38.67
16.30
-20.40
-62.60
-99.35
-121.04
-122.30
-103.01
-67.60
-23.32
22.09
62.24
92.54
110.47
115.76
109.80
95.31
76.13
56.28
39.56
29.41
28.28
37.33
55.50
79.30
101.60
115.00
113.14
93.64
59.72
19.50
-16.96
-42.00
-52.97
-52.64
-46.63
-40.25
-36.13
-33.58
-30.49
-25.39
-18.93
-12.79
-8.58
-6.34
-4.42
-0.37
8.25
22.39
41.17
61.59
80.63
95.02
102.37
101.35
91.57
73.49
47.86
15.92
-21.39
-61.90
-102.85
-140.75
-171.77
-192.42
-199.72
-192.01
-166.18
-126.86
-79.35
-29.50
16.33
55.24
84.66
103.40
111.69
110.49
100.47
83.01
58.55
29.76
-0.94
-31.85
-61.73
-89.43
-113.23
-130.83
-138.11
-131.35
-109.36
-75.19
-35.92
-0.24
24.78
36.04
34.47
24.22
9.44
-7.31
-25.48
-45.18
-65.79
-85.48
-100.89
-109.33
-109.11
-100.58
-84.93
-63.72
-37.96
-8.20
24.54
59.36
95.57
131.37
163.56
189.20
206.10
213.26
211.00
200.55
183.70
159.31
131.00
100.67
69.61
38.83
9.32
-18.09
-42.82
-64.55
-83.35
-98.95
-112.01
-122.91
-131.95
-138.53
-141.86
-141.30
-136.46
-127.49
-114.55
-98.89
-81.91
-65.14
-49.71
-36.60
-26.67
-20.11
-16.93
-16.82
-19.51
-24.44
-30.91
-38.03
-45.11
-52.10
-58.70
-65.20
-72.21
-80.42
-90.17
-101.18
-112.64
-123.29
-132.15
-137.61
-138.93
-136.01
-128.91
-117.50
-100.84
-76.85
-42.70
-1.20
46.18
97.39
149.74
200.31
246.48
286.52
320.34
348.00
369.82
387.22
401.18
411.47
416.37
412.68
397.02
368.11
325.93
273.30
217.13
166.82
131.34
116.16
121.02
139.97
164.39
182.79
184.79
164.48
120.88
56.69
-23.58
-114.74
-215.91
-314.07
-391.84
-436.42
-445.33
-425.29
-386.89
-340.49
-294.04
-254.17
-220.52
-194.03
-176.11
-166.36
-161.35
-155.09
-141.56
-116.51
-79.51
-32.09
20.37
71.47
116.34
152.64
179.84
197.24
204.15
201.53
194.02
187.49
187.47
197.01
215.12
237.41
256.70
266.50
264.09
251.96
234.89
217.27
200.95
184.64
165.09
137.06
96.04
40.74
-26.03
-99.62
-175.67
-251.39
-325.72
-385.77
-416.20
-407.72
-363.57
-295.71
-217.09
-137.18
-61.64
5.49
62.94
110.02
146.96
174.55
196.07
214.48
230.97
245.58
254.70
256.10
248.88
234.29
214.60
191.92
167.65
142.33
115.53
81.47
36.46
-19.65
-83.14
-148.91
-212.83
-271.34
-325.07
-375.54
-430.77
-495.63
-569.11
-644.50
-713.42
-769.77
-809.04
-832.85
-802.85
-702.68
-545.32
-366.45
-199.76
-61.53
35.62
107.92
165.42
212.63
244.13
255.33
247.65
226.30
198.07
168.74
145.41
132.20
135.21
153.23
179.15
202.27
213.99
211.53
197.38
178.81
160.77
146.12
131.42
112.17
86.75
57.69
29.59
5.94
-11.15
-23.48
-33.85
-46.60
-64.25
-86.21
-109.13
-128.78
-142.33
-148.23
-147.85
-143.67
-139.03
-136.50
-136.97
-139.75
-143.51
-147.46
-150.90
-154.44
-159.04
-165.51
-173.98
-183.60
-192.46
-197.73
-200.70
-201.06
-198.56
-193.20
-185.03
-173.86
-159.06
-139.67
-114.79
-84.06
-47.35
-5.50
39.75
86.20
131.64
174.40
213.35
247.86
277.43
301.93
321.08
334.38
341.33
342.02
337.44
329.35
319.96
311.56
306.57
307.56
315.62
329.77
347.02
363.05
373.52
375.35
367.85
353.07
336.15
321.36
310.75
304.21
300.80
299.88
301.36
305.29
311.32
320.50
331.48
341.17
346.38
345.78
340.29
332.06
323.15
314.38
307.83
301.59
290.23
266.89
226.72
168.91
96.71
16.24
-82.36
-191.81
-293.82
-369.43
-410.57
-420.89
-409.14
-383.76
-351.08
-315.44
-277.05
-238.44
-202.10
-171.25
-148.07
-132.57
-123.33
-118.54
-116.53
-114.06
-110.56
-108.45
-109.12
-114.58
-125.83
-142.83
-164.89
-190.95
-218.62
-246.91
-276.37
-308.37
-344.13
-383.64
-426.07
-470.39
-515.42
-558.56
-596.00
-622.22
-630.39
-614.69
-572.39
-505.87
-422.47
-332.52
-245.86
-169.60
-107.11
-58.14
-21.16
5.75
24.76
38.59
50.50
63.65
80.22
100.72
124.99
150.99
175.93
198.22
218.97
242.07
272.68
314.61
367.86
428.57
487.05
530.92
550.72
544.13
516.70
478.31
438.58
403.09
374.09
348.44
320.59
286.15
243.66
194.10
139.17
81.07
12.13
-60.63
-121.05
-155.38
-161.92
-150.16
-132.84
-119.70
-114.62
-115.98
-117.91
-117.16
-114.19
-110.07
-106.29
-101.96
-95.19
-85.00
-71.67
-55.51
-39.10
-25.61
-15.88
-7.48
4.06
22.44
46.34
72.57
97.73
117.05
126.47
124.74
113.73
97.24
78.60
59.57
40.71
21.49
-1.58
-33.64
-78.12
-134.65
-199.07
-265.41
-328.24
-383.95
-420.66
-429.67
-411.16
-374.26
-330.82
-288.51
-250.04
-215.58
-184.87
-161.42
-146.20
-140.77
-144.94
-155.13
-164.74
-166.20
-153.04
-121.50
-71.13
-7.85
58.11
116.74
161.99
192.93
212.37
224.28
231.53
235.08
233.98
227.56
217.83
209.75
209.20
220.48
244.69
279.64
320.14
358.78
387.14
397.83
386.31
352.20
299.67
236.52
172.10
114.63
69.03
35.98
12.94
-3.68
-16.20
-24.23
-24.80
-14.33
8.32
39.75
71.91
94.79
100.50
86.61
56.54
17.20
-24.57
-64.39
-100.47
-131.79
-156.31
-170.90
-172.79
-161.71
-140.87
-116.15
-94.11
-79.88
-76.05
-82.42
-96.53
-114.39
-131.38
-143.26
-147.26
-142.59
-130.29
-112.18
-89.94
-64.59
-37.05
-8.96
16.46
34.47
40.13
30.10
4.45
-32.39
-72.41
-106.18
-125.66
-126.63
-109.58
-79.08
-41.79
-4.47
27.59
51.14
64.86
69.07
65.60
57.40
48.11
41.05
38.24
39.77
44.06
48.87
52.60
54.99
56.95
59.71
63.90
69.21
74.77
79.89
84.51
88.96
93.02
95.31
93.34
84.42
66.94
41.44
10.67
-21.23
-49.95
-72.11
-85.67
-89.80
-84.94
-72.71
-56.28
-40.43
-30.86
-32.55
-48.20
-76.89
-113.92
-152.50
-186.31
-211.84
-229.61
-243.33
-257.51
-274.60
-293.56
-309.89
-317.39
-310.86
-288.21
-251.20
-204.68
-155.33
-110.91
-79.62
-68.87
-83.14
-121.70
-177.23
-237.09
-287.17
-316.80
-322.15
-306.39
-276.72
-239.87
-198.90
-152.24
-95.62
-24.85
61.64
161.45
268.15
371.84
460.71
523.75
554.37
552.65
525.29
483.17
437.20
394.87
358.89
328.44
301.69
277.83
257.35
240.72
227.19
214.28
198.89
178.99
154.85
129.14
105.65
87.43
75.45
68.41
63.27
56.70
46.43
32.07
14.97
-2.69
-18.96
-32.97
-45.03
-56.14
-67.17
-78.16
-88.13
-95.43
-98.38
-96.01
-88.42
-76.77
-62.86
-48.49
-35.09
-23.41
-13.74
-6.10
-0.58
2.55
2.98
0.53
-4.54
-11.48
-19.15
-26.23
-31.55
-34.30
-34.26
-31.80
-27.84
-23.55
-20.00
-17.77
-16.91
-16.89
-16.99
-16.60
-15.40
-13.52
-11.40
-9.67
-8.93
-9.60
-11.62
-14.46
-17.13
-18.44
-17.57
-14.41
-9.75
-4.95
-1.31
0.50
0.60
-0.31
-1.35
-1.89
-1.77
-1.22
-0.56
0.16
1.37
3.59
7.33
12.80
19.71
27.33
34.51
40.17
43.75
45.55
45.96
45.43
44.52
43.75
43.67
44.38
45.23
44.86
41.61
32.92
17.16
-4.79
-29.00
-49.81
-62.37
-64.66
-58.07
-45.76
-32.38
-21.29
-12.24
-1.14
17.79
48.99
93.44
147.90
205.84
256.58
288.01
290.64
260.66
200.54
117.39
20.91
-82.79
-177.75
-246.61
-281.14
-285.70
-270.91
-246.32
-218.52
-191.32
-166.58
-144.61
-126.20
-112.39
-102.95
-96.07
-88.82
-79.06
-66.42
-51.64
-36.04
-21.68
-11.60
-8.24
-12.70
-24.68
-43.54
-68.39
-96.38
-122.50
-140.30
-144.43
-132.35
-105.29
-67.66
-25.78
14.05
48.94
72.66
82.28
78.83
65.67
46.39
24.22
5.39
-9.30
-18.96
-23.24
-21.95
-15.67
-5.19
6.89
20.43
36.48
55.91
79.98
109.05
143.14
181.14
220.51
257.64
288.99
311.59
323.48
325.01
318.05
305.61
290.61
275.06
260.02
246.47
235.31
227.35
223.54
224.30
229.09
235.66
240.27
238.77
228.42
209.14
183.86
157.45
134.55
117.56
105.73
96.06
85.51
72.93
59.44
47.52
39.34
35.53
35.01
35.65
35.26
32.18
25.33
14.01
-1.92
-21.87
-44.55
-68.31
-91.58
-113.32
-133.20
-151.19
-167.35
-182.00
-196.13
-211.60
-230.26
-252.10
-273.34
-286.53
-283.12
-257.60
-210.96
-151.46
-91.65
-43.36
-13.29
-1.81
-5.05
-18.79
-41.42
-73.49
-114.60
-159.90
-198.98
-219.13
-211.38
-176.00
-123.95
-73.31
-41.71
-39.19
-65.02
-109.66
-160.85
-209.67
-252.89
-291.11
-324.61
-350.68
-364.41
-362.35
-346.02
-322.61
-301.81
-290.68
-289.83
-293.03
-290.47
-274.01
-241.35
-196.60
-148.04
-104.00
-69.56
-46.07
-32.92
-30.01
-39.36
-64.87
-110.00
-174.83
-254.22
-337.71
-412.10
-465.24
-489.72
-484.77
-455.81
-411.85
-362.13
-313.54
-269.44
-230.32
-195.49
-164.53
-137.76
-115.39
-96.71
-79.73
-61.86
-41.03
-16.63
10.33
37.73
63.48
86.50
107.04
126.25
145.40
165.14
185.47
205.50
224.00
240.28
254.74
269.03
285.38
305.29
328.35
352.54
373.59
386.59
388.21
378.33
360.04
338.33
318.16
303.19
296.92
300.37
312.34
330.25
351.35
373.45
395.19
416.13
436.53
459.04
483.78
507.85
526.87
537.88
540.82
537.95
531.77
523.19
513.56
499.97
476.64
438.08
382.35
311.97
232.15
148.32
45.63
-74.90
-198.82
-306.12
-383.56
-428.94
-447.13
-445.43
-431.37
-411.37
-387.40
-361.72
-337.21
-316.35
-299.57
-285.22
-270.86
-254.92
-237.11
-216.03
-192.38
-168.76
-148.20
-132.38
-121.35
-114.65
-112.26
-114.87
-122.05
-133.96
-151.59
-176.09
-207.55
-244.15
-281.81
-314.67
-336.26
-340.78
-325.97
-294.65
-254.00
-212.53
-176.95
-150.32
-131.73
-117.50
-106.10
-95.79
-85.57
-75.02
-63.62
-50.38
-34.33
-15.12
6.62
29.53
52.48
74.71
96.19
117.49
139.47
162.74
187.32
212.67
237.93
262.81
287.59
313.15
340.66
370.98
404.00
438.31
471.32
500.03
522.18
536.80
544.39
546.46
544.86
540.92
534.81
525.11
509.21
484.18
447.91
400.21
343.33
281.62
220.29
163.93
115.36
75.49
43.75
18.97
0.05
-14.00
-24.33
-32.74
-41.75
-54.24
-72.81
-99.26
-134.16
-176.60
-224.47
-274.95
-325.24
-373.30
-418.06
-459.43
-498.05
-535.18
-572.50
-611.72
-653.47
-696.09
-734.66
-761.67
-769.18
-751.98
-710.00
-648.71
-577.13
-504.37
-436.70
-376.21
-321.64
-270.38
-220.58
-172.09
-126.13
-84.47
-48.33
-18.15
6.30
25.64
40.61
52.03
60.99
68.80
76.58
84.89
93.31
100.67
105.51
106.74
104.10
98.00
89.40
79.36
69.09
59.98
53.37
49.93
49.20
49.80
50.29
50.51
52.08
57.78
69.90
88.44
110.60
131.74
147.47
155.52
156.46
152.93
148.18
144.65
143.38
144.36
147.25
152.08
159.23
169.18
181.81
196.12
210.26
221.96
229.32
231.41
228.40
221.26
211.23
199.20
185.49
170.06
152.86
134.25
115.10
96.52
79.56
64.94
52.97
43.67
36.87
32.26
29.41
27.72
26.53
25.28
23.61
21.49
19.08
16.54
13.80
10.58
6.45
1.16
-5.21
-12.20
-18.99
-24.67
-28.49
-30.05
-29.33
-26.60
-22.30
-16.96
-11.04
-5.06
0.54
5.45
9.53
12.90
15.72
18.12
19.96
20.89
20.51
18.66
15.54
11.75
8.02
4.84
2.30
0.17
-1.93
-4.25
-6.65
-8.73
-10.04
-10.31
-9.72
-8.79
-8.13
-8.11
-8.55
-8.75
-7.93
-5.60
-1.80
2.79
7.22
10.67
12.81
13.83
14.32
14.86
15.85
17.40
19.38
21.60
23.88
26.10
28.22
30.28
32.41
34.91
38.13
42.47
48.28
55.74
64.85
75.52
87.75
101.66
117.45
135.15
154.45
174.50
194.14
212.21
227.92
241.17
252.51
262.62
271.71
279.00
282.60
279.97
268.73
247.48
216.28
176.72
131.31
83.03
34.76
-10.93
-52.00
-86.93
-115.33
-138.51
-159.09
-180.05
-202.64
-224.96
-241.96
-247.51
-237.69
-213.32
-179.97
-145.26
-115.28
-91.86
-72.80
-54.43
-34.72
-14.79
1.93
12.50
16.75
17.63
19.43
24.92
33.62
42.34
47.13
45.64
38.18
27.03
14.35
0.70
-15.70
-38.09
-68.97
-108.77
-155.75
-207.12
-260.46
-314.65
-369.79
-426.14
-482.53
-534.93
-576.47
-599.82
-599.87
-575.67
-530.36
-469.92
-401.28
-330.43
-261.19
-195.07
-133.30
-77.88
-30.79
7.68
39.88
70.06
102.75
141.25
186.55
234.95
277.50
302.71
300.54
266.11
201.00
112.16
9.71
-88.85
-162.28
-195.98
-190.85
-160.37
-119.03
-74.81
-30.72
11.50
50.09
81.22
99.14
102.15
91.99
74.38
58.12
50.74
55.83
73.66
100.30
129.42
156.60
178.48
195.85
213.61
235.85
254.81
261.70
249.15
214.21
160.01
101.85
46.38
-0.07
-32.98
-51.44
-57.93
-57.02
-55.71
-61.11
-77.79
-106.32
-140.59
-170.93
-187.24
-180.93
-148.10
-91.01
-16.79
65.01
144.86
217.13
279.12
329.54
367.44
390.66
395.84
379.92
342.14
284.34
211.36
128.68
40.65
-49.67
-139.96
-227.93
-310.85
-386.11
-451.96
-506.99
-549.44
-576.36
-583.33
-565.96
-522.40
-455.14
-371.17
-280.28
-191.90
-112.50
-44.75
11.62
58.15
96.27
127.14
152.17
173.80
195.45
220.77
252.37
290.74
334.02
378.32
418.99
452.03
475.21
488.69
494.71
496.45
496.68
496.88
496.72
494.61
488.38
475.88
455.39
425.60
385.81
336.18
278.41
215.90
153.64
97.23
51.56
19.55
1.34
-5.50
-5.12
-2.14
-0.38
-2.09
-7.84
-17.29
-29.76
-45.18
-64.04
-86.94
-114.04
-144.84
-178.54
-214.23
-251.29
-288.45
-323.13
-351.34
-368.74
-372.86
-364.79
-349.33
-332.83
-320.23
-312.57
-307.24
-300.60
-291.04
-280.90
-274.96
-277.11
-286.70
-297.56
-300.26
-286.64
-254.11
-207.07
-155.10
-108.17
-72.21
-47.19
-28.61
-11.34
6.71
23.16
33.39
33.79
24.83
11.25
-0.66
-6.24
-4.44
2.86
13.25
25.71
40.67
58.33
77.02
93.01
102.54
104.16
99.67
92.80
87.07
84.04
83.60
85.47
90.31
99.65
114.43
133.60
154.06
171.85
183.89
188.86
187.09
179.48
166.87
149.91
129.45
107.05
84.76
64.73
48.71
37.74
32.03
30.56
31.26
31.81
31.26
31.57
37.79
56.09
90.36
139.00
193.97
243.25
275.20
283.00
266.62
231.73
186.11
136.16
85.32
35.10
-12.41
-52.88
-80.40
-90.41
-82.99
-64.32
-44.88
-34.94
-40.17
-59.52
-86.63
-113.90
-136.83
-156.06
-176.37
-203.16
-238.66
-280.02
-319.97
-349.40
-360.63
-349.81
-317.51
-267.51
-204.76
-133.85
-58.84
15.81
83.97
137.69
168.87
172.05
146.95
99.00
37.46
-28.43
-92.67
-153.36
-210.91
-264.43
-309.21
-337.71
-343.48
-325.89
-292.09
-254.46
-225.09
-210.53
-210.07
-218.25
-229.88
-243.81
-262.96
-290.90
-327.46
-366.72
-398.70
-413.73
-406.69
-378.78
-336.15
-286.67
-236.70
-189.52
-145.68
-104.14
-63.80
-24.41
13.26
48.05
79.21
107.30
134.45
163.71
197.61
235.96
274.61
305.52
319.01
307.22
267.34
202.56
120.33
29.27
-63.29
-151.58
-230.20
-292.49
-331.11
-340.34
-319.11
-272.90
-212.64
-151.10
-98.68
-60.73
-37.42
-25.73
-21.86
-22.46
-25.35
-28.97
-31.85
-32.43
-29.16
-20.81
-6.69
13.09
38.73
69.61
104.32
140.88
177.30
212.17
244.87
275.48
304.61
335.01
369.00
407.99
452.11
500.11
549.51
596.36
635.55
662.10
675.39
676.65
668.33
653.19
633.32
610.34
584.94
556.79
525.20
492.92
461.56
430.52
397.12
357.84
311.12
257.70
199.83
120.57
17.09
-99.52
-208.85
-293.78
-348.67
-376.13
-382.28
-373.57
-355.66
-329.98
-298.54
-265.48
-235.93
-216.19
-209.89
-217.20
-235.70
-261.76
-289.11
-313.01
-331.33
-336.75
-327.02
-302.33
-265.00
-218.42
-167.09
-114.05
-64.37
-18.91
19.36
46.29
60.20
61.70
53.45
37.20
12.33
-18.87
-52.44
-86.42
-121.41
-158.16
-196.21
-230.80
-256.17
-265.93
-261.61
-242.82
-214.16
-183.32
-157.19
-139.47
-126.52
-113.54
-95.34
-66.89
-28.54
14.69
56.83
93.80
123.85
156.22
193.91
236.25
280.01
321.56
358.38
391.11
424.41
438.18
425.79
387.34
330.46
265.31
200.25
139.96
86.89
42.28
6.18
-18.15
-30.87
-34.56
-33.82
-33.51
-36.85
-44.27
-53.80
-62.58
-65.26
-58.77
-42.51
-18.91
7.45
31.08
47.02
52.13
45.04
29.45
10.98
-4.42
-12.94
-14.31
-11.68
-10.33
-15.68
-31.92
-59.31
-94.35
-130.86
-162.78
-186.69
-203.20
-216.32
-223.64
-224.79
-219.35
-206.57
-185.75
-157.83
-125.81
-94.07
-66.22
-43.23
-24.47
-7.86
8.81
26.50
44.53
61.73
77.21
91.15
104.68
118.29
132.15
145.33
155.88
161.31
159.67
149.88
132.44
108.73
82.00
55.33
31.01
10.31
-6.43
-19.24
-28.62
-34.97
-38.36
-39.09
-37.82
-35.25
-32.18
-29.31
-26.88
-25.24
-24.45
-24.26
-24.43
-24.99
-26.00
-27.81
-32.05
-37.65
-43.92
-50.05
-54.97
-57.39
-55.96
-49.34
-36.76
-17.63
8.39
40.58
77.52
117.08
156.55
192.84
223.01
244.02
253.93
252.26
239.55
217.63
189.41
158.51
128.80
104.06
86.52
77.71
78.19
87.03
102.24
120.97
139.69
154.44
166.94
176.07
180.83
180.84
176.30
168.01
157.13
145.06
133.09
122.28
112.40
103.14
93.98
84.15
72.85
59.36
43.30
24.70
4.07
-18.39
-42.02
-65.94
-89.26
-111.05
-130.36
-146.12
-157.29
-162.89
-162.79
-157.44
-148.07
-136.69
-125.60
-116.99
-112.35
-112.31
-116.60
-124.64
-135.75
-149.46
-165.61
-183.98
-204.00
-224.41
-243.41
-259.27
-270.84
-278.04
-281.84
-283.91
-286.19
-290.78
-300.00
-316.27
-341.19
-373.95
-410.21
-442.05
-460.05
-456.33
-427.56
-376.19
-309.22
-235.45
-162.18
-93.71
-31.28
25.51
77.39
125.02
169.62
213.80
261.38
315.70
377.10
441.32
499.71
541.94
560.12
552.07
522.16
479.32
433.37
391.52
356.99
329.65
308.20
292.00
281.55
277.71
280.22
287.09
294.81
299.51
298.08
288.76
271.55
247.57
218.59
186.50
153.11
120.17
89.52
62.98
42.08
27.63
19.30
15.61
14.07
11.86
6.64
-2.79
-15.97
-31.00
-44.99
-54.96
-58.42
-53.99
-41.66
-22.72
0.53
25.39
49.25
70.04
86.57
98.81
107.79
115.34
123.51
134.04
147.82
164.57
182.74
199.82
212.71
218.24
213.48
196.06
164.27
117.33
55.59
-19.20
-103.68
-193.01
-281.43
-363.00
-432.66
-487.30
-526.14
-550.64
-563.78
-568.91
-568.84
-565.45
-559.78
-552.40
-544.22
-536.74
-532.09
-532.84
-541.64
-560.71
-590.85
-630.24
-673.75
-713.35
-740.15
-747.29
-732.67
-699.64
-655.59
-608.69
-564.90
-526.22
-491.22
-456.79
-420.17
-380.14
-337.21
-293.24
-250.84
-212.78
-181.17
-156.62
-137.53
-120.62
-102.07
-79.19
-51.76
-21.89
7.16
32.70
53.97
72.23
89.93
109.19
130.88
154.20
177.26
197.98
214.65
226.29
232.58
233.66
230.31
224.36
219.10
218.77
226.73
243.06
263.09
278.46
280.55
265.04
234.93
199.90
172.57
163.17
175.74
207.40
250.28
294.62
331.00
351.51
350.45
325.48
278.91
218.10
154.22
98.78
60.03
41.08
40.20
53.25
76.31
107.19
144.83
187.48
230.98
268.28
290.84
291.06
264.99
213.91
144.42
66.68
-7.88
-69.08
-109.40
-124.53
-113.72
-79.95
-30.50
23.59
69.02
93.28
87.80
49.97
-16.32
-101.85
-193.73
-277.82
-341.39
-375.68
-378.25
-353.67
-312.17
-265.65
-223.79
-190.92
-166.18
-145.49
-124.54
-100.56
-72.33
-39.47
-1.89
39.20
80.20
115.14
137.86
145.41
139.94
128.03
117.49
114.10
118.78
127.86
135.75
138.04
134.28
127.19
120.52
116.94
117.76
122.93
131.61
142.68
154.55
167.41
182.40
201.30
224.85
253.05
282.97
308.31
320.82
312.74
282.14
232.21
169.40
100.66
34.48
-21.17
-59.68
-76.92
-73.19
-50.45
-14.85
24.69
50.64
49.72
18.12
-35.84
-90.61
-140.65
-186.70
-231.75
-277.21
-321.21
-355.62
-372.64
-368.24
-343.72
-305.00
-255.76
-198.67
-131.99
-53.47
43.75
163.63
303.90
455.18
603.17
735.93
843.20
921.93
939.68
878.04
740.32
552.64
349.10
155.51
-1.55
-129.10
-233.89
-319.12
-380.21
-412.91
-415.78
-391.91
-348.13
-290.13
-227.00
-165.49
-112.20
-67.85
-31.02
-0.34
24.07
40.49
47.89
44.85
33.86
18.06
2.72
-8.04
-12.32
-10.49
-4.60
3.17
10.04
15.45
19.13
21.92
27.14
33.78
40.58
46.19
49.17
47.76
41.49
30.50
16.36
1.27
-11.59
-19.00
-18.71
-10.29
5.27
26.55
51.97
79.57
100.35
108.26
99.00
71.42
28.46
-21.82
-68.49
-101.38
-114.58
-108.53
-87.69
-59.07
-27.44
2.67
27.55
43.91
49.06
41.88
22.90
-4.84
-38.11
-71.01
-99.79
-123.05
-141.60
-157.56
-173.07
-189.92
-207.30
-222.05
-229.06
-224.52
-207.37
-180.63
-152.96
-129.35
-113.62
-105.52
-101.33
-95.32
-83.79
-65.96
-43.48
-17.64
10.05
39.43
71.90
108.22
149.92
192.74
229.79
254.50
263.89
259.37
245.41
228.03
212.92
204.26
202.01
201.70
196.14
178.53
144.89
95.37
34.50
-33.27
-98.45
-145.20
-161.19
-145.64
-109.43
-69.04
-38.33
-23.82
-24.64
-34.89
-47.89
-59.35
-68.90
-76.41
-82.03
-86.82
-93.88
-107.58
-131.67
-168.31
-218.48
-282.12
-354.05
-426.57
-490.35
-536.18
-556.62
-547.98
-512.32
-457.75
-395.62
-335.67
-283.21
-237.83
-195.17
-150.22
-99.94
-44.61
12.80
68.46
120.03
166.44
208.02
245.57
279.80
311.07
339.69
366.50
392.40
417.90
441.59
460.15
469.45
466.38
450.63
425.25
395.69
367.51
344.13
325.24
307.41
285.70
255.90
215.88
166.08
108.90
47.82
-13.23
-70.31
-119.69
-158.38
-184.83
-199.51
-204.68
-203.40
-198.14
-189.37
-175.54
-154.28
-124.30
-86.99
-46.48
-8.36
22.31
42.55
52.22
53.61
50.45
46.85
46.16
50.11
58.24
68.17
76.53
80.43
78.77
72.43
63.63
54.42
45.45
35.94
24.69
11.53
-1.82
-12.33
-17.24
-15.82
-10.14
-4.34
-2.92
-8.71
-21.76
-39.57
-58.57
-75.74
-89.57
-100.12
-108.01
-113.40
-115.46
-112.61
-103.34
-87.14
-64.99
-39.13
-12.45
12.54
34.37
52.64
67.76
80.36
90.74
98.72
103.71
104.88
101.65
93.91
82.24
67.90
52.69
38.40
26.42
17.47
11.44
7.49
4.32
0.41
-5.60
-14.68
-27.39
-43.72
-62.91
-83.41
-103.00
-119.10
-129.25
-131.61
-125.43
-111.31
-91.08
-67.34
-42.93
-20.28
-1.12
13.73
24.20
30.82
34.42
36.10
36.84
37.37
38.02
38.71
38.96
38.34
36.84
34.94
33.57
33.49
34.89
37.20
39.30
39.85
38.04
33.81
27.72
20.58
12.93
4.89
-3.71
-13.04
-23.11
-33.57
-44.00
-54.00
-63.29
-71.60
-78.45
-83.07
-84.64
-82.61
-76.94
-68.24
-57.57
-45.95
-34.22
-22.92
-12.37
-2.67
6.24
14.73
23.32
32.50
42.44
52.56
61.55
67.84
70.07
67.77
61.48
52.44
42.10
31.65
21.71
12.42
3.75
-4.22
-10.98
-15.80
-17.93
-16.91
-12.85
-6.51
0.90
8.09
14.00
18.08
20.15
20.40
19.10
16.47
12.70
8.05
2.95
-1.99
-5.98
-8.31
-8.64
-7.16
-4.70
-2.48
-1.75
-3.52
-8.37
-16.31
-26.85
-39.19
-52.24
-64.73
-75.19
-82.01
-83.80
-79.57
-69.17
-53.43
-34.15
-13.73
5.32
20.98
32.07
38.39
40.58
39.70
36.82
32.84
28.50
24.26
20.44
17.18
14.40
11.92
9.71
7.98
7.37
8.82
12.90
19.45
27.33
34.66
39.59
40.88
38.27
32.44
24.44
15.21
5.45
-4.29
-13.32
-20.68
-25.35
-26.66
-24.66
-20.20
-14.66
-9.32
-4.95
-1.65
0.88
2.94
4.61
5.69
5.93
5.33
4.27
3.43
3.43
4.63
6.91
9.86
13.02
16.04
19.05
22.27
25.81
29.52
32.88
35.07
35.21
32.63
26.97
18.33
7.10
-6.18
-20.78
-35.77
-50.13
-62.79
-72.73
-79.04
-80.98
-78.13
-70.48
-58.41
-42.88
-25.23
-7.10
9.85
24.16
34.82
41.44
44.15
43.65
40.89
36.96
32.91
29.45
26.94
25.28
24.08
22.85
21.15
18.81
16.12
13.78
12.67
13.48
16.43
21.12
26.62
31.80
35.65
37.52
37.19
34.76
30.55
24.99
18.59
11.96
5.78
0.75
-2.54
-3.79
-3.04
-0.73
2.41
5.50
7.69
8.36
7.26
4.57
0.81
-3.29
-7.02
-9.86
-11.53
-12.10
-11.87
-11.32
-10.97
-11.25
-12.23
-13.62
-14.75
-14.78
-13.02
-9.32
-4.20
1.28
5.81
8.36
8.38
5.93
1.49
-4.26
-10.62
-16.94
-22.53
-26.71
-28.88
-28.72
-26.38
-22.43
-17.82
-13.47
-10.11
-8.06
-7.33
-7.66
-8.73
-10.18
-11.66
-12.84
-13.47
-13.44
-12.84
-11.92
-10.88
-9.73
-8.12
-5.45
-1.25
4.55
11.44
18.40
24.36
28.55
30.81
31.52
31.20
30.24
28.63
26.15
22.66
18.45
14.21
10.77
8.85
8.66
9.78
11.26
11.94
10.77
7.12
0.74
-8.35
-19.74
-32.81
-46.57
-59.77
-71.02
-79.00
-82.74
-81.78
-76.21
-66.53
-53.49
-37.97
-20.98
-3.68
12.54
26.41
36.92
43.62
46.72
46.75
44.44
40.45
35.21
29.09
22.63
16.63
11.96
9.29
8.67
9.52
10.89
11.79
11.58
10.10
7.63
4.54
1.12
-2.55
-6.45
-10.59
-14.88
-19.10
-22.98
-26.06
-27.71
-27.15
-23.66
-16.86
-7.15
4.27
15.63
25.15
31.67
34.86
35.24
33.63
30.71
26.85
22.11
16.64
10.91
5.75
2.04
0.36
0.70
2.44
4.70
6.61
7.70
7.91
7.52
6.88
6.23
5.62
4.93
4.01
2.74
1.12
-0.77
-2.76
-4.58
-5.91
-6.34
-5.54
-3.39
-0.03
4.04
8.13
11.56
13.84
14.84
14.67
13.55
11.70
9.27
6.38
3.26
0.32
-1.99
-3.25
-3.23
-2.05
-0.14
1.86
3.27
3.55
2.50
0.26
-2.67
-5.55
-7.75
-8.83
-8.78
-7.99
-7.03
-6.43
-6.54
-7.38
-8.68
-9.98
-10.79
-10.62
-9.17
-6.38
-2.54
1.84
6.08
9.54
11.77
12.62
12.12
10.48
7.98
4.98
1.89
-0.89
-2.99
-4.12
-4.08
-2.86
-0.67
2.21
5.36
8.37
10.83
12.50
13.27
13.27
12.61
11.44
10.04
8.91
8.58
9.48
11.73
15.04
18.79
22.03
24.07
25.13
26.33
29.16
34.64
42.85
52.90
63.28
72.06
77.94
81.21
83.57
87.17
93.28
101.89
111.98
122.23
130.96
137.08
140.90
143.64
146.11
147.88
147.74
144.53
137.38
124.38
102.66
69.42
22.86
-37.52
-110.59
-192.97
-277.71
-349.50
-393.36
-404.52
-389.39
-357.59
-314.83
-262.36
-200.46
-132.55
-66.92
-15.49
11.47
10.89
-11.61
-44.54
-75.39
-94.44
-96.40
-80.31
-49.34
-9.14
34.24
75.48
110.53
136.64
152.08
155.66
146.34
123.20
87.08
42.87
-1.16
-36.11
-56.26
-61.29
-55.75
-45.94
-36.75
-29.77
-22.87
-12.68
2.90
23.11
44.59
63.01
74.77
78.25
74.00
64.38
51.84
38.31
24.42
10.24
-4.76
-21.05
-38.29
-56.12
-73.86
-90.31
-103.28
-109.14
-104.41
-87.30
-59.53
-27.11
0.55
14.88
10.27
-12.88
-47.99
-85.31
-115.72
-133.31
-136.12
-124.69
-99.82
-62.03
-12.34
45.88
105.74
158.24
195.41
213.42
213.93
202.32
184.13
162.26
137.46
109.68
80.18
52.50
30.63
16.78
9.86
5.98
0.72
-8.52
-21.53
-36.56
-51.28
-64.37
-75.62
-85.35
-93.63
-99.34
-100.69
-96.50
-87.35
-73.88
-57.43
-39.91
-23.75
-11.33
-4.44
-4.34
-9.55
-20.22
-34.87
-51.55
-68.36
-84.13
-97.49
-106.14
-107.10
-98.64
-80.79
-53.31
-16.80
26.96
75.10
125.58
178.05
233.50
290.95
341.85
376.10
388.91
383.79
366.51
339.75
302.32
252.22
190.02
114.35
30.37
-53.13
-128.37
-193.15
-249.89
-304.35
-349.69
-383.34
-403.30
-406.58
-391.06
-357.22
-309.88
-255.06
-198.33
-143.95
-97.27
-62.57
-42.16
-37.07
-37.98
-40.14
-41.69
-43.16
-45.09
-48.59
-53.34
-58.13
-61.48
-62.29
-61.78
-61.10
-61.22
-62.43
-65.78
-71.67
-80.75
-93.51
-109.81
-129.41
-149.43
-164.89
-170.04
-164.67
-147.99
-123.53
-97.35
-74.86
-59.47
-50.75
-46.11
-42.76
-39.78
-37.89
-39.19
-45.34
-56.65
-72.84
-93.09
-117.02
-144.19
-173.61
-202.59
-227.03
-241.26
-238.96
-217.62
-176.84
-119.25
-49.88
25.16
100.24
170.64
232.96
284.45
322.21
342.85
343.36
322.23
280.48
222.05
153.21
82.15
16.64
-36.83
-73.81
-91.86
-91.06
-74.61
-48.78
-21.40
3.36
25.04
46.56
71.83
102.90
137.91
171.07
195.22
204.85
203.44
198.15
195.56
198.23
204.85
212.72
220.28
228.47
239.60
263.13
305.23
364.60
432.17
495.96
546.81
581.14
600.80
610.26
623.79
651.64
695.84
750.10
804.97
853.25
891.20
917.21
877.22
742.38
521.03
259.53
13.18
-182.41
-317.23
-398.24
-435.81
-448.16
-438.37
-407.48
-360.82
-309.87
-268.50
-247.52
-252.82
-282.54
-328.87
-371.62
-391.48
-377.44
-331.36
-266.50
-201.71
-155.08
-138.57
-155.30
-194.43
-240.79
-281.77
-311.50
-330.52
-342.49
-351.21
-359.40
-369.40
-381.23
-395.96
-415.66
-441.14
-469.14
-491.57
-498.45
-482.94
-445.83
-395.32
-345.04
-308.90
-295.70
-306.26
-333.80
-367.07
-394.43
-407.01
-400.04
-372.83
-328.27
-271.60
-209.20
-147.23
-90.57
-42.45
-4.46
23.10
40.90
50.61
54.87
56.79
59.22
64.27
72.94
85.54
102.12
123.06
149.13
181.06
218.81
260.57
302.50
338.84
363.18
370.27
358.14
329.47
291.19
252.31
220.30
197.99
182.07
164.95
139.10
101.77
57.42
16.03
-11.96
-21.30
-14.59
-0.67
10.63
13.95
11.14
9.48
17.21
38.96
73.75
115.90
157.51
191.15
211.73
217.51
210.71
197.21
184.77
179.63
183.22
190.65
192.60
179.82
147.50
97.13
34.76
-32.53
-99.34
-161.79
-215.58
-254.18
-269.71
-256.53
-215.04
-153.26
-84.52
-22.57
23.51
51.77
66.52
74.92
83.28
94.78
109.21
124.11
136.36
143.33
143.41
136.16
122.26
103.56
83.06
64.36
50.79
44.32
44.84
49.96
55.47
56.60
49.58
33.26
10.05
-14.25
-32.28
-37.89
-28.83
-8.01
17.61
40.21
54.74
60.97
63.09
66.81
76.01
90.66
107.21
120.72
127.29
125.32
115.12
97.80
74.26
45.30
12.56
-20.73
-49.82
-69.97
-77.94
-73.13
-57.22
-33.03
-3.62
27.64
56.47
77.51
85.50
77.61
55.10
23.11
-11.94
-45.63
-77.03
-107.40
-136.90
-161.96
-175.55
-170.74
-145.05
-102.43
-51.64
-2.20
39.29
70.03
89.14
95.07
84.72
55.22
7.09
-53.79
-117.17
-171.98
-210.80
-232.27
