1630943510.00
64.000000
-0.00
-0.00
-0.00
-0.00
-0.00
-0.00
-0.00
-0.00
-0.00
-0.00
0.00
0.01
0.01
-0.00
-0.03
-0.05
-0.05
0.00
0.13
0.36
0.66
1.01
1.37
1.72
2.06
2.40
2.79
3.24
3.80
4.42
5.06
5.66
6.20
6.68
7.15
7.68
8.31
9.14
10.09
11.04
11.88
12.56
13.14
13.76
14.65
15.96
17.91
20.32
22.90
25.38
27.58
29.57
31.68
34.32
37.81
42.54
48.15
54.10
59.83
64.97
69.58
74.14
79.34
85.71
93.76
103.00
112.62
121.73
129.77
136.75
143.30
150.75
157.77
166.64
177.95
191.79
206.97
220.57
228.25
225.36
208.53
176.87
132.76
80.05
23.07
-34.94
-92.44
-149.16
-205.23
-260.37
-313.74
-363.88
-409.83
-450.91
-486.49
-515.72
-537.20
-549.18
-549.90
-538.27
-514.08
-478.51
-433.68
-382.21
-326.73
-269.50
-212.24
-156.21
-102.45
-51.82
-5.29
36.26
72.17
102.16
126.39
145.35
159.75
170.30
177.62
182.12
184.10
183.78
181.42
177.34
171.93
165.58
158.66
151.47
144.20
136.98
129.83
122.75
115.72
108.74
101.86
95.17
88.77
82.77
77.24
72.19
67.54
63.18
59.00
54.98
51.17
47.76
44.93
42.83
41.40
40.41
39.47
38.27
36.68
34.84
33.15
32.00
31.61
31.75
31.78
30.81
28.09
23.41
17.22
10.49
4.42
-0.11
-3.05
-5.07
-7.39
-11.01
-16.15
-22.04
-27.11
-29.72
-29.10
-25.72
-21.07
-17.16
-15.51
-16.65
-20.25
-25.56
-31.54
-36.50
-37.90
-32.91
-19.83
0.16
22.29
39.66
46.11
39.25
21.63
-0.58
-20.69
-34.56
-41.73
-44.38
-45.02
-44.78
-42.87
-37.94
-29.57
-18.89
-8.20
-0.10
3.01
-0.16
-8.53
-18.55
-24.25
-18.81
3.10
43.01
97.98
161.47
226.03
285.30
334.61
370.04
387.60
383.51
355.94
306.90
242.12
170.26
99.77
36.80
-16.06
-59.87
-97.48
-131.63
-163.61
-194.25
-223.55
-251.33
-277.27
-300.98
-322.00
-339.89
-354.19
-364.70
-372.67
-379.31
-385.36
-390.73
-394.47
-395.06
-390.79
-380.25
-355.40
-312.30
-250.93
-175.60
-93.78
-13.56
58.67
119.42
167.83
204.82
230.79
246.65
253.69
253.56
248.28
239.96
230.58
221.67
214.26
207.51
200.25
191.32
179.78
165.26
148.22
129.85
111.83
96.39
83.73
73.52
65.01
56.69
47.14
35.67
22.69
9.69
-0.74
-7.90
-12.00
-13.89
-15.69
-19.38
-25.83
-34.33
-42.83
-48.21
-50.26
-50.76
-52.72
-60.72
-79.19
-111.33
-158.91
-222.58
-297.96
-381.14
-465.91
-535.67
-573.94
-570.62
-527.14
-455.70
-381.25
-311.42
-247.26
-186.38
-125.73
-65.40
-9.59
36.84
71.71
97.38
121.09
148.25
180.97
217.63
252.48
278.68
291.64
290.76
278.99
261.82
242.28
221.19
198.95
175.11
149.47
122.57
95.48
69.73
47.16
27.95
11.33
-1.91
-11.10
-15.83
-16.37
-13.76
-9.50
-4.85
-1.39
-0.57
-0.29
2.09
8.86
20.91
37.53
57.31
79.15
102.59
127.90
159.79
203.31
262.07
336.70
424.45
520.67
620.40
719.61
791.00
812.94
773.98
679.24
548.18
404.61
267.27
146.14
43.77
-41.62
-109.45
-158.94
-189.76
-203.52
-204.22
-197.35
-188.40
-181.80
-180.26
-181.80
-182.81
-179.73
-170.81
-156.69
-139.33
-120.71
-102.37
-86.17
-73.26
-66.06
-67.63
-79.98
-102.25
-129.97
-156.32
-175.05
-183.32
-181.49
-172.68
-160.48
-147.23
-133.62
-119.54
-105.18
-91.62
-80.44
-72.38
-66.95
-62.56
-57.40
-50.12
-40.73
-30.31
-20.52
-12.90
-8.28
-6.54
-6.81
-7.90
-8.90
-9.58
-10.43
-12.10
-15.16
-19.83
-25.85
-32.71
-39.70
-46.23
-51.91
-56.46
-59.65
-61.19
-60.82
-58.48
-54.39
-48.86
-42.20
-34.55
-25.81
-15.80
-4.40
7.94
20.51
31.06
37.76
39.45
36.00
28.29
18.09
7.10
-3.56
-13.84
-24.57
-36.57
-50.38
-66.15
-82.52
-99.34
-115.08
-126.82
-130.74
-123.53
-104.13
-74.96
-41.68
-10.96
11.94
25.37
30.99
32.00
31.03
29.08
25.87
21.33
16.76
14.61
17.32
25.49
37.18
48.52
55.75
57.00
53.36
48.22
45.47
47.65
54.76
64.67
74.39
81.51
84.46
82.00
73.20
57.86
37.93
17.88
3.55
-0.82
4.50
13.89
19.01
13.49
-2.81
-23.46
-38.89
-41.93
-31.96
-14.93
0.61
8.26
7.14
1.38
-3.37
-3.47
0.92
6.34
8.59
5.19
-3.51
-14.55
-23.73
-27.26
-23.23
-12.39
2.24
16.49
26.73
30.85
28.85
22.36
13.43
3.34
-7.49
-19.19
-31.36
-41.39
-46.16
-43.35
-32.49
-15.23
5.28
25.37
41.62
51.39
52.98
45.68
30.33
9.54
-12.70
-32.06
-45.55
-52.88
-56.91
-62.30
-73.48
-92.30
-117.19
-144.17
-168.75
-187.97
-201.28
-210.01
-215.85
-219.50
-219.84
-214.38
-200.72
-178.26
-149.18
-118.00
-89.74
-67.57
-51.28
-37.50
-21.96
-2.29
20.24
41.48
57.30
66.61
72.48
80.55
95.60
118.89
147.30
175.01
196.10
206.82
206.54
197.28
182.75
166.98
153.18
142.82
135.34
128.79
121.31
112.71
104.95
101.25
104.10
113.28
125.47
135.49
138.65
132.80
119.05
100.86
82.03
64.91
49.88
35.82
21.38
6.02
-9.84
-25.58
-41.60
-59.80
-83.29
-114.73
-154.53
-199.92
-245.21
-283.75
-309.93
-320.95
-316.90
-299.99
-273.11
-238.56
-197.75
-151.65
-101.65
-50.44
-1.82
40.03
71.91
92.70
103.71
108.14
109.70
111.27
114.07
117.73
121.06
123.07
123.53
123.08
122.59
122.70
123.39
124.01
123.70
121.86
118.43
113.94
109.22
104.84
100.83
96.71
91.67
85.02
76.71
67.41
58.24
50.33
44.39
40.46
38.14
37.11
37.18
38.42
40.81
43.99
47.23
49.61
50.31
49.11
46.48
43.36
40.77
39.25
38.56
37.71
35.50
31.06
24.36
16.18
7.71
-0.07
-6.86
-12.96
-18.83
-24.57
-29.73
-33.61
-35.81
-36.68
-37.09
-37.91
-39.53
-41.62
-43.34
-43.88
-42.80
-40.25
-36.70
-32.73
-28.82
-25.35
-22.55
-20.63
-19.73
-19.75
-20.51
-21.56
-22.42
-22.86
-22.84
-22.68
-22.83
-23.61
-25.02
-26.81
-28.53
-29.82
-30.52
-30.62
-30.12
-28.99
-27.28
-25.21
-23.42
-22.94
-24.82
-29.67
-37.01
-45.20
-51.74
-54.33
-51.80
-44.79
-35.46
-26.56
-20.04
-16.28
-14.24
-12.22
-8.84
-3.69
3.00
10.89
19.84
29.81
40.42
50.54
58.70
63.67
65.14
63.96
61.79
60.53
61.87
67.05
76.64
90.25
106.06
121.03
131.36
133.65
126.23
109.44
85.41
57.00
26.87
-2.91
-30.81
-55.54
-76.24
-92.70
-105.74
-116.99
-128.05
-139.59
-150.88
-160.16
-165.71
-167.03
-165.15
-162.15
-159.69
-157.77
-154.58
-147.53
-135.13
-118.18
-99.29
-81.12
-64.69
-48.68
-30.72
-9.34
14.67
38.47
58.60
72.70
80.20
81.82
78.53
70.85
59.18
44.61
29.19
15.40
5.09
-1.58
-5.98
-10.34
-16.93
-27.18
-41.09
-56.96
-71.22
-78.97
-75.82
-59.71
-32.51
0.17
31.02
53.89
65.53
66.41
59.72
49.39
38.86
30.11
24.13
21.62
23.15
28.33
35.73
43.08
47.83
48.48
44.83
38.63
33.39
33.05
39.68
52.53
68.10
80.88
86.05
80.62
64.78
41.78
18.32
1.29
-5.77
-4.04
-0.24
1.97
0.82
-4.10
-12.33
-21.12
-28.65
-33.89
-32.76
-23.36
-5.97
16.16
39.00
60.26
79.37
96.04
109.50
119.31
125.96
132.51
143.02
159.51
181.67
205.39
224.83
235.90
240.33
244.73
256.93
280.04
309.94
337.31
351.98
347.96
322.84
281.09
230.91
180.13
132.36
87.11
43.17
-0.48
-42.80
-85.99
-131.56
-179.35
-226.94
-271.57
-310.76
-341.47
-362.86
-374.69
-384.70
-399.77
-422.25
-449.02
-475.35
-497.47
-511.99
-519.98
-523.33
-533.94
-562.24
-612.58
-681.96
-764.14
-851.42
-932.59
-998.51
-983.69
-853.58
-623.83
-353.57
-103.73
91.86
217.71
301.68
367.39
430.39
489.62
541.86
586.98
630.69
671.40
700.88
709.88
690.31
643.92
573.61
487.75
397.93
316.53
249.71
198.25
161.79
137.41
123.34
113.45
101.64
83.11
56.69
20.94
-24.11
-75.53
-130.40
-185.00
-239.16
-286.90
-323.64
-333.73
-311.71
-265.47
-211.41
-164.85
-131.89
-111.11
-97.24
-86.59
-77.21
-71.44
-71.27
-75.38
-79.76
-78.97
-69.81
-51.99
-28.42
-2.27
22.17
42.45
59.38
76.54
98.02
127.45
168.77
219.25
278.43
344.24
412.82
478.19
532.58
566.89
573.99
551.98
505.00
442.61
374.87
310.25
254.73
211.77
180.82
158.91
142.46
128.36
114.83
100.15
83.33
64.40
43.98
20.04
-10.54
-50.10
-98.86
-155.12
-217.30
-284.48
-356.26
-416.64
-449.22
-447.29
-418.22
-375.62
-330.02
-286.86
-247.94
-213.53
-183.21
-158.14
-139.63
-127.34
-119.01
-112.13
-105.89
-100.85
-97.81
-95.62
-92.60
-86.57
-75.86
-61.03
-45.70
-35.51
-34.90
-44.76
-61.32
-79.36
-94.60
-104.41
-107.35
-102.13
-89.77
-68.83
-41.65
-14.41
4.72
9.71
1.39
-11.69
-17.44
-5.78
26.52
73.53
123.91
165.80
191.42
199.47
194.30
182.73
170.52
160.07
149.80
136.05
116.16
90.38
62.31
37.09
18.50
6.57
-3.59
-17.45
-39.09
-68.07
-99.47
-126.08
-142.13
-145.88
-139.76
-128.85
-117.69
-109.21
-101.51
-91.05
-74.08
-48.28
-13.26
29.80
78.42
125.62
164.61
188.68
191.08
167.29
117.92
50.48
-21.60
-82.93
-120.13
-130.20
-117.04
-90.38
-61.87
-40.79
-31.51
-33.42
-43.05
-56.20
-70.14
-83.64
-96.72
-109.22
-119.72
-125.77
-124.81
-118.10
-106.64
-91.37
-72.58
-50.56
-26.89
-5.67
6.58
2.96
-20.29
-60.43
-108.44
-151.69
-179.20
-185.76
-173.31
-148.74
-119.98
-92.57
-68.01
-45.32
-23.06
-0.60
22.00
44.89
68.56
92.88
115.73
132.60
137.46
125.64
96.49
54.80
9.49
-29.58
-55.13
-64.58
-59.93
-45.94
-27.69
-8.86
8.71
24.55
38.87
52.36
66.57
83.93
107.05
137.29
172.93
208.42
235.27
245.05
232.30
196.99
144.35
82.96
21.78
-32.22
-74.96
-104.90
-122.33
-128.90
-127.40
-121.68
-115.84
-113.21
-115.23
-121.32
-129.43
-137.38
-143.79
-148.54
-152.45
-156.48
-161.15
-166.16
-170.52
-173.01
-172.44
-168.08
-159.71
-147.42
-131.44
-111.74
-88.10
-60.29
-28.41
6.90
44.34
82.33
119.51
155.20
189.49
223.22
257.49
293.56
332.65
375.89
423.70
474.99
526.53
573.06
608.66
628.73
631.75
619.75
597.18
568.84
538.16
506.63
474.56
442.42
411.60
384.18
361.80
344.69
331.43
319.69
307.48
293.99
279.77
266.04
253.83
243.09
232.51
220.04
203.68
182.37
156.51
127.77
98.36
70.14
43.76
18.47
-7.42
-35.65
-67.06
-101.14
-136.14
-169.97
-201.03
-228.93
-254.48
-279.27
-304.97
-333.15
-365.19
-402.11
-443.59
-486.73
-525.46
-551.50
-557.20
-539.01
-499.56
-447.07
-391.99
-342.77
-302.95
-271.29
-244.25
-218.91
-194.59
-172.13
-151.95
-132.81
-112.34
-88.80
-62.96
-38.27
-19.22
-8.76
-6.56
-9.13
-11.72
-10.74
-5.34
2.63
10.00
14.15
14.01
10.27
4.70
-0.77
-4.73
-6.57
-6.68
-6.29
-7.07
-10.49
-16.71
-24.31
-30.58
-32.85
-29.92
-22.83
-14.25
-7.26
-4.02
-4.94
-9.06
-14.90
-21.33
-27.85
-34.20
-39.97
-44.45
-47.06
-47.75
-47.01
-45.49
-43.29
-39.76
-33.96
-25.60
-15.71
-6.71
-1.35
-1.49
-7.31
-17.10
-28.32
-38.90
-48.25
-57.24
-67.40
-79.55
-92.75
-104.23
-110.37
-108.24
-96.98
-78.27
-55.76
-33.52
-14.57
0.09
11.27
20.68
29.69
38.68
47.22
54.87
61.69
68.42
75.82
84.01
92.20
98.83
102.47
102.56
99.62
94.74
88.84
81.92
73.15
61.74
47.89
33.07
19.47
8.71
0.80
-5.99
-14.33
-26.15
-41.49
-58.12
-72.36
-80.50
-80.24
-71.47
-55.83
-35.87
-13.87
8.80
31.62
54.28
75.87
94.48
107.74
113.84
112.59
105.81
96.69
88.30
82.23
78.04
74.02
68.60
61.53
53.92
47.40
42.67
38.89
34.17
26.72
16.27
4.10
-7.74
-17.77
-25.86
-33.00
-40.33
-47.94
-54.57
-58.40
-58.44
-55.37
-51.51
-49.64
-51.71
-57.87
-66.47
-75.17
-81.98
-86.17
-88.28
-89.56
-91.24
-93.97
-97.70
-101.76
-105.25
-107.28
-107.01
-103.79
-97.12
-86.67
-72.26
-53.94
-31.99
-7.02
20.13
48.46
76.84
104.02
128.77
150.10
167.44
180.91
191.29
199.80
207.53
214.85
221.27
225.48
226.01
221.88
212.91
199.75
183.96
167.59
152.85
141.55
134.36
130.55
127.91
123.34
114.07
98.85
78.36
54.82
30.97
8.92
-10.44
-27.30
-42.37
-56.39
-69.91
-83.33
-96.87
-110.05
-121.39
-128.21
-127.14
-115.49
-92.59
-60.87
-25.68
6.29
29.12
39.57
38.19
28.90
17.43
8.95
5.80
6.80
8.30
6.58
0.16
-9.20
-17.75
-22.23
-22.08
-20.01
-20.04
-24.65
-33.01
-41.27
-44.96
-41.99
-34.01
-25.33
-20.36
-21.03
-26.12
-32.61
-37.74
-40.51
-41.65
-42.33
-42.96
-43.15
-42.46
-41.45
-42.09
-46.65
-56.03
-68.56
-80.17
-86.05
-83.00
-71.14
-54.10
-37.48
-26.41
-23.61
-28.38
-37.21
-45.52
-49.88
-49.51
-46.41
-43.97
-44.73
-48.50
-51.95
-50.11
-38.99
-17.93
9.58
37.12
58.14
68.81
69.11
62.06
51.68
40.77
29.93
18.12
4.00
-12.75
-30.79
-47.53
-60.06
-66.24
-65.35
-58.31
-47.35
-35.16
-24.02
-15.04
-8.00
-2.05
3.60
8.78
12.45
13.42
11.29
6.93
2.12
-1.37
-2.72
-2.38
-1.77
-2.38
-4.89
-8.87
-12.88
-15.02
-13.80
-8.76
-0.68
8.58
16.77
22.14
24.03
22.87
19.71
15.56
10.91
5.74
0.04
-5.59
-9.77
-11.00
-8.39
-2.38
5.22
11.98
15.93
16.49
14.68
12.53
12.07
14.45
19.61
26.56
34.20
41.80
49.05
55.89
61.91
66.27
67.93
66.08
60.74
52.89
44.15
36.07
29.40
23.69
17.74
10.50
2.02
-6.26
-12.01
-13.54
-11.20
-7.63
-6.96
-12.86
-26.61
-46.22
-67.01
-83.55
-91.64
-89.90
-79.83
-65.09
-50.01
-38.12
-31.24
-28.96
-28.63
-25.98
-16.40
3.60
34.73
74.35
116.82
155.20
183.37
197.42
196.40
181.77
156.40
123.64
86.72
48.40
10.70
-25.06
-58.25
-88.57
-115.73
-139.20
-158.33
-172.86
-183.18
-190.20
-194.65
-196.53
-195.09
-189.43
-179.72
-167.90
-157.47
-152.34
-155.39
-167.46
-187.36
-212.56
-240.19
-267.92
-294.24
-318.33
-339.52
-356.82
-368.74
-373.43
-369.40
-356.17
-334.95
-308.49
-280.44
-254.17
-231.83
-213.95
-199.57
-187.40
-177.05
-168.83
-163.13
-160.07
-158.97
-158.44
-156.75
-152.37
-144.70
-134.58
-123.40
-112.28
-101.80
-91.71
-81.09
-68.84
-53.80
-35.79
-16.66
1.51
17.46
30.69
41.81
52.32
63.99
79.55
100.31
123.51
146.29
167.44
186.39
203.55
220.44
239.61
267.34
309.19
362.80
423.94
487.35
544.08
583.89
598.91
586.80
556.41
520.18
482.10
447.00
422.10
411.49
416.38
435.27
464.02
502.56
548.49
587.51
610.66
618.77
614.71
601.99
583.77
523.46
400.60
275.24
175.86
90.70
14.82
-57.01
-128.73
-201.91
-275.15
-338.78
-383.96
-415.80
-438.37
-450.57
-452.41
-444.33
-427.12
-402.09
-366.57
-319.65
-270.58
-226.06
-186.93
-153.52
-125.75
-103.31
-85.33
-67.30
-45.14
-21.71
-0.22
17.70
29.68
34.47
33.46
30.97
34.27
49.23
75.52
109.11
144.08
173.10
190.05
191.88
179.34
157.09
131.91
110.15
97.83
99.48
116.55
146.75
184.34
221.41
249.94
263.96
261.29
243.91
217.11
187.55
161.11
141.15
128.25
120.91
116.82
114.16
111.85
109.15
104.86
96.90
82.48
59.44
27.52
-10.67
-49.60
-81.97
-100.54
-100.22
-79.82
-42.73
3.98
51.74
93.09
123.55
141.77
148.22
143.39
126.79
97.45
55.54
3.75
-52.56
-107.12
-155.06
-194.86
-228.62
-260.65
-295.28
-335.20
-381.16
-432.41
-487.01
-541.83
-592.23
-632.28
-656.02
-659.27
-641.26
-604.97
-555.97
-500.34
-442.97
-386.89
-333.72
-284.53
-240.11
-200.56
-164.47
-128.46
-87.58
-36.92
26.13
99.91
177.79
249.13
302.43
329.15
326.65
298.95
254.66
203.25
151.40
101.25
50.96
-3.18
-64.38
-133.62
-208.95
-285.64
-357.05
-415.92
-456.20
-474.83
-472.69
-454.21
-425.61
-392.86
-360.13
-329.52
-301.68
-276.74
-254.60
-234.68
-215.55
-195.03
-170.97
-142.25
-109.33
-73.93
-38.14
-3.41
30.22
63.90
99.31
137.65
179.16
222.88
267.23
310.70
352.39
392.46
432.16
473.55
518.76
568.83
622.43
675.37
721.29
753.65
768.28
765.05
748.01
723.43
697.15
672.43
649.38
626.10
600.56
571.91
540.75
508.25
475.12
441.08
405.28
367.02
326.52
285.01
244.49
206.89
173.33
143.76
117.00
91.29
65.03
37.39
8.67
-19.89
-46.70
-70.53
-90.94
-108.50
-124.60
-141.01
-159.59
-182.03
-209.23
-240.51
-272.98
-301.67
-320.61
-324.70
-311.47
-282.18
-241.53
-196.30
-153.38
-118.12
-93.31
-79.14
-73.68
-73.78
-76.00
-77.37
-75.89
-70.69
-61.87
-50.13
-36.38
-21.62
-6.86
6.82
18.65
28.35
36.06
42.22
47.41
51.89
55.61
58.19
59.10
57.75
53.63
46.33
35.69
21.81
5.16
-13.53
-33.36
-53.61
-74.02
-94.88
-116.98
-141.24
-168.16
-197.56
-228.57
-259.86
-290.14
-318.68
-345.42
-371.01
-396.84
-424.94
-457.73
-497.13
-543.07
-592.11
-637.22
-669.06
-678.94
-662.04
-619.54
-558.61
-489.98
-424.32
-368.95
-326.24
-293.93
-267.08
-240.44
-210.17
-174.61
-134.28
-91.22
-48.44
-9.11
24.30
50.85
71.51
89.35
108.74
133.93
167.32
207.58
249.21
283.64
302.07
298.91
274.43
234.97
190.63
151.53
124.19
109.70
104.54
103.21
101.19
96.30
88.28
77.40
63.71
47.07
28.17
8.81
-8.71
-22.78
-33.47
-42.45
-51.58
-61.47
-70.95
-77.77
-80.35
-78.86
-75.03
-70.69
-65.80
-58.09
-44.54
-24.14
0.69
24.75
42.79
52.72
56.80
60.03
66.68
77.22
87.73
92.56
88.13
75.64
60.73
50.09
47.57
51.94
57.91
59.64
54.07
42.46
29.14
18.61
13.13
12.06
12.70
12.49
10.42
7.32
5.10
5.40
8.65
13.51
17.53
18.17
14.18
6.51
-1.72
-6.57
-5.49
1.15
9.91
16.11
16.52
11.30
3.58
-2.86
-6.28
-8.05
-11.00
-16.43
-22.04
-22.63
-13.44
6.15
31.25
53.93
67.52
70.73
68.26
67.60
74.13
87.53
101.91
109.21
104.15
87.19
64.23
43.23
30.23
26.85
30.25
35.64
39.12
39.44
37.76
36.19
35.93
36.28
35.28
31.02
23.18
13.47
4.84
-0.09
-0.64
1.49
3.16
1.86
-2.87
-8.92
-12.97
-12.57
-7.67
-0.97
3.49
2.45
-4.74
-15.81
-26.93
-34.78
-38.19
-38.47
-38.39
-40.32
-44.78
-50.24
-54.10
-54.54
-51.72
-47.98
-46.51
-49.28
-55.85
-63.47
-68.64
-69.06
-64.84
-58.11
-51.44
-46.19
-41.85
-36.63
-28.78
-17.39
-2.46
15.65
36.59
59.86
84.14
107.03
125.37
136.20
138.14
131.99
120.65
108.11
98.06
92.77
92.37
95.22
98.71
100.54
99.37
95.25
88.96
81.16
71.87
60.58
47.08
32.19
18.00
7.04
1.11
0.31
3.03
6.82
9.64
10.61
9.88
8.20
6.11
3.84
1.40
-1.15
-3.48
-5.24
-6.29
-7.14
-8.60
-11.38
-15.52
-20.20
-24.07
-25.91
-25.42
-23.39
-21.33
-20.48
-20.97
-21.48
-19.95
-14.88
-6.44
3.08
10.29
12.33
8.46
0.21
-9.42
-17.61
-22.66
-24.15
-22.36
-17.59
-10.24
-1.37
6.99
12.19
12.44
8.01
1.50
-3.49
-4.57
-1.95
1.64
2.79
-0.38
-7.01
-14.16
-18.72
-19.22
-16.47
-12.73
-10.12
-9.37
-9.77
-10.14
-9.98
-9.96
-11.28
-14.54
-19.00
-22.75
-23.58
-20.51
-14.27
-7.22
-2.10
-0.53
-2.49
-6.38
-10.02
-11.73
-10.82
-7.54
-2.48
3.73
10.64
17.90
25.05
31.54
36.70
39.97
41.32
41.53
42.25
45.75
53.94
67.29
84.06
100.54
112.50
117.17
114.62
107.63
100.08
94.64
91.34
87.90
81.41
70.72
57.43
45.13
37.43
35.79
38.76
42.94
45.09
43.81
39.94
35.36
31.08
26.32
19.03
7.60
-7.30
-22.56
-34.20
-39.66
-39.38
-36.48
-34.65
-35.77
-38.83
-40.97
-39.63
-34.72
-28.82
-25.63
-27.46
-33.63
-40.81
-44.86
-43.19
-36.23
-27.10
-19.95
-17.68
-20.32
-24.90
-27.06
-23.26
-12.72
2.13
16.98
27.75
32.50
32.26
30.14
29.95
34.93
46.84
65.99
91.15
119.58
147.30
169.80
183.59
187.63
183.52
174.27
162.67
149.92
136.09
121.32
106.85
94.56
85.55
78.53
69.83
55.01
31.33
-0.60
-37.22
-73.96
-107.83
-138.69
-168.98
-202.24
-240.81
-284.60
-330.72
-374.04
-408.60
-429.36
-434.03
-424.10
-404.32
-380.70
-357.95
-337.63
-318.14
-296.34
-269.99
-239.20
-206.27
-173.95
-143.54
-113.86
-81.88
-44.53
-0.68
47.77
96.63
141.21
178.07
205.89
225.02
236.43
240.89
238.69
230.10
216.15
198.69
179.78
160.78
141.80
121.88
99.97
76.13
52.10
30.99
15.87
8.32
7.45
10.23
12.86
12.59
9.04
4.00
0.33
0.06
3.36
8.76
14.24
18.69
22.23
25.52
28.50
29.89
27.65
20.62
9.76
-1.89
-10.36
-12.81
-8.80
-0.20
10.05
19.43
26.74
31.95
35.33
36.58
34.85
29.52
20.87
10.59
1.13
-5.39
-8.12
-7.68
-5.26
-1.49
4.09
12.58
24.63
39.31
54.02
65.72
72.58
75.18
76.21
79.04
85.84
96.76
110.42
125.09
139.79
154.11
167.11
176.40
178.09
168.14
144.44
108.02
62.90
14.70
-31.63
-73.37
-109.90
-141.57
-168.04
-187.29
-196.03
-191.41
-172.62
-141.76
-103.09
-61.43
-20.45
17.87
52.69
82.96
106.77
121.68
126.12
120.92
109.52
96.70
86.44
80.22
76.86
73.86
69.19
62.21
53.55
43.89
32.59
17.77
-2.75
-30.03
-62.57
-96.70
-128.36
-155.12
-177.36
-198.09
-221.13
-248.66
-279.80
-311.05
-337.92
-357.24
-368.47
-373.58
-375.42
-375.86
-374.65
-369.70
-358.61
-340.26
-315.78
-287.95
-259.89
-233.50
-208.76
-184.22
-157.99
-129.20
-98.76
-68.88
-41.99
-19.49
-0.79
16.58
35.91
59.78
88.77
121.04
152.89
180.40
201.25
215.58
226.33
238.53
257.95
288.52
330.02
376.88
418.89
443.94
441.23
405.06
337.45
248.55
154.42
72.99
19.48
2.34
21.50
67.81
126.04
179.88
217.05
232.22
227.16
208.34
181.06
151.96
126.77
108.70
98.64
96.47
101.67
112.89
127.40
141.36
151.73
157.04
157.84
156.54
156.28
159.32
165.86
174.13
181.24
184.75
184.70
182.13
179.08
177.84
179.75
184.63
190.78
195.78
197.69
195.48
189.00
179.09
166.87
153.08
137.59
119.54
97.89
72.27
43.24
12.13
-19.18
-48.96
-76.33
-101.56
-125.83
-150.51
-176.38
-203.20
-229.96
-255.23
-277.84
-297.49
-314.77
-331.03
-348.04
-367.64
-391.35
-419.66
-451.00
-481.08
-503.34
-510.48
-497.10
-461.94
-408.97
-346.26
-283.65
-229.75
-190.07
-166.35
-157.35
-159.87
-169.75
-182.32
-192.60
-195.88
-188.50
-168.91
-138.18
-100.15
-60.69
-26.25
-2.05
9.41
9.10
0.94
-9.69
-17.99
-21.39
-20.33
-17.55
-16.58
-20.07
-28.64
-40.71
-53.33
-63.33
-68.05
-65.99
-56.56
-39.91
-16.80
11.33
42.20
72.45
97.95
114.37
118.22
107.94
84.64
52.19
16.47
-16.00
-39.78
-51.73
-51.23
-39.62
-19.15
7.84
39.24
72.90
106.22
136.24
160.05
175.41
181.25
178.02
167.34
151.55
133.31
115.16
99.40
88.00
82.60
84.44
94.11
111.17
133.93
159.44
184.07
204.37
217.96
223.78
221.67
211.52
192.69
164.37
126.79
82.35
36.04
-5.38
-35.07
-48.01
-42.49
-20.48
13.08
51.32
86.90
113.45
126.75
125.59
111.71
89.13
62.65
36.57
13.85
-3.99
-16.53
-24.07
-27.46
-28.01
-27.27
-26.60
-26.82
-27.94
-29.24
-29.67
-28.28
-24.62
-18.93
-12.09
-5.52
-1.07
-0.60
-5.51
-16.21
-31.95
-50.74
-69.96
-86.87
-99.24
-105.71
-105.94
-100.62
-91.30
-79.93
-68.41
-58.10
-49.67
-43.07
-37.84
-33.56
-30.23
-28.38
-28.93
-32.76
-40.11
-50.27
-61.55
-71.57
-77.94
-78.93
-74.04
-64.09
-50.76
-36.09
-21.95
-9.70
-0.28
5.65
7.60
5.27
-1.30
-11.53
-24.10
-37.14
-48.51
-56.24
-59.04
-56.35
-48.43
-36.14
-20.63
-2.99
15.77
34.68
52.70
68.65
81.31
89.84
94.01
94.57
93.19
92.19
93.96
100.24
111.55
126.89
144.12
160.72
174.82
185.80
194.25
201.38
208.21
214.85
220.27
222.69
220.41
212.70
200.22
184.77
168.71
153.87
140.64
127.57
111.91
90.86
62.86
28.39
-10.75
-51.98
-93.10
-133.14
-172.66
-213.57
-258.63
-310.45
-370.37
-437.88
-508.78
-575.09
-627.03
-656.19
-658.83
-637.08
-597.77
-549.19
-499.20
-451.92
-407.49
-363.76
-318.65
-271.46
-222.41
-171.58
-118.62
-65.44
-15.31
27.49
58.99
76.94
81.94
77.32
67.84
68.48
86.57
120.27
159.82
194.16
217.10
228.29
230.52
226.90
219.55
207.88
191.65
171.96
151.08
131.28
113.87
98.63
84.71
71.34
56.77
40.33
22.75
5.90
-8.20
-18.33
-24.45
-27.74
-28.60
-28.35
-27.87
-27.34
-26.38
-24.47
-21.63
-18.54
-15.84
-14.20
-14.60
-17.55
-22.94
-30.19
-38.54
-47.42
-56.63
-65.68
-74.22
-82.19
-89.43
-95.56
-100.00
-101.91
-100.17
-96.70
-92.15
-86.95
-81.46
-75.97
-70.68
-65.74
-61.18
-57.00
-53.22
-49.40
-45.19
-40.46
-35.27
-29.83
-24.37
-19.09
-14.09
-9.40
-4.71
0.21
5.36
10.49
15.23
19.29
22.62
25.49
28.28
31.52
35.67
40.59
45.59
49.77
52.43
53.53
53.77
54.37
56.51
61.63
70.02
80.82
92.51
103.72
114.13
124.72
137.27
153.37
175.45
203.97
237.57
273.48
308.92
342.25
373.60
404.38
436.68
475.75
525.62
587.46
657.96
728.95
788.94
826.71
835.34
815.22
778.24
740.00
713.62
704.59
709.49
719.39
725.27
722.38
685.38
601.32
467.90
295.00
101.55
-91.36
-266.60
-413.47
-527.19
-608.04
-656.15
-674.96
-670.58
-650.82
-623.56
-594.78
-567.74
-543.22
-520.88
-497.23
-470.05
-438.98
-405.56
-372.35
-341.70
-314.77
-291.55
-271.47
-252.05
-231.58
-209.56
-186.56
-163.89
-142.79
-123.91
-107.29
-92.72
-79.12
-65.78
-52.56
-39.59
-27.21
-15.69
-5.15
4.35
12.44
18.75
22.71
23.53
20.93
15.16
6.96
-2.69
-12.95
-23.55
-34.80
-46.51
-59.28
-72.90
-86.26
-97.66
-105.63
-109.33
-109.12
-106.34
-102.88
-100.72
-101.37
-105.72
-113.65
-123.31
-130.93
-131.49
-120.51
-96.39
-62.04
-24.11
9.38
32.43
43.41
45.08
42.47
39.83
38.68
37.70
34.76
28.58
20.06
11.60
5.70
3.82
6.10
12.04
20.68
30.76
40.10
45.65
44.21
34.02
16.42
-4.02
-20.99
-28.89
-25.80
-13.95
1.83
16.82
28.48
36.92
43.70
49.98
55.56
59.10
59.26
55.67
49.43
42.51
37.19
34.77
35.09
36.74
37.49
35.23
28.72
17.83
2.94
-15.56
-37.37
-61.54
-85.68
-105.79
-116.81
-115.86
-103.41
-83.54
-62.54
-46.19
-37.30
-35.10
-36.38
-37.65
-37.02
-34.27
-30.11
-25.18
-19.45
-12.50
-4.26
4.62
13.02
19.86
24.64
27.81
30.13
32.22
34.26
35.76
35.92
34.27
30.96
27.01
24.10
23.60
26.22
31.83
39.76
49.13
59.45
70.57
81.46
92.59
104.27
116.77
130.01
142.79
152.12
153.45
142.38
117.03
79.97
37.70
-1.40
-30.36
-46.30
-50.87
-48.48
-43.70
-39.04
-34.63
-29.66
-23.73
-17.61
-12.64
-9.82
-8.99
-8.96
-8.21
-5.48
-0.96
4.15
8.17
9.83
8.66
5.21
0.57
-4.02
-7.82
-10.88
-13.77
-17.22
-21.34
-25.80
-29.82
-32.68
-34.08
-34.35
-34.35
-35.03
-37.09
-40.35
-44.42
-48.86
-53.59
-58.86
-65.22
-73.13
-81.63
-91.03
-101.15
-111.99
-122.86
-131.88
-135.94
-131.69
-117.14
-92.89
-63.37
-32.42
-4.31
18.32
34.99
46.65
54.50
59.38
61.77
62.32
62.77
65.06
70.96
80.92
93.46
105.26
112.04
110.14
98.08
77.97
54.44
33.02
17.67
9.29
5.61
3.03
-0.95
-6.37
-11.09
-13.00
-11.67
-8.86
-7.65
-10.44
-17.76
-28.29
-39.73
-50.01
-57.77
-62.21
-62.55
-57.96
-48.10
-34.25
-19.52
-7.91
-2.66
-4.70
-12.47
-22.79
-32.47
-39.48
-43.36
-44.87
-44.87
-43.18
-38.64
-30.34
-18.62
-5.47
6.24
14.23
18.00
18.98
19.16
19.44
18.75
14.44
4.07
-12.78
-33.69
-54.25
-69.73
-76.98
-75.21
-66.00
-52.39
-37.83
-25.18
-16.11
-11.03
-9.07
-8.29
-6.29
-1.24
7.35
18.33
29.45
38.39
43.73
45.43
44.63
42.91
41.62
41.43
42.32
43.83
45.51
46.98
47.80
47.37
45.07
40.58
34.28
27.24
20.77
15.71
11.96
8.70
4.97
0.58
-3.48
-5.69
-5.02
-1.79
2.47
5.69
6.38
4.42
0.94
-2.49
-4.60
-4.76
-2.74
1.55
8.23
17.04
26.92
36.00
42.27
44.54
43.10
39.66
36.46
35.13
35.92
37.77
38.93
37.87
34.11
28.34
22.00
16.52
12.91
11.51
12.05
13.70
15.65
17.24
18.09
18.26
17.99
17.39
16.47
15.07
12.86
9.46
4.64
-1.37
-7.89
-13.81
-17.88
-19.01
-16.59
-10.70
-2.05
7.95
17.42
24.43
27.42
25.69
19.71
11.05
1.76
-6.51
-13.27
-18.87
-23.90
-28.32
-31.20
-31.29
-27.83
-21.12
-12.42
-3.71
3.17
6.98
7.23
4.18
-1.16
-7.22
-12.26
-15.01
-15.09
-13.36
-11.40
-10.72
-11.89
-14.25
-16.54
-17.60
-16.92
-14.58
-10.79
-5.51
1.50
10.20
19.71
28.31
33.88
34.87
31.12
24.00
15.86
9.22
5.56
4.72
5.16
4.88
2.46
-2.20
-7.82
-12.56
-15.03
-15.14
-14.08
-13.68
-15.26
-19.01
-23.98
-28.78
-32.42
-34.80
-36.35
-37.51
-38.27
-38.22
-36.85
-34.07
-30.29
-26.16
-22.16
-18.45
-14.70
-10.30
-4.72
2.32
10.51
18.87
25.86
29.71
29.15
24.19
16.35
8.23
2.51
0.75
2.70
6.58
10.04
11.47
10.62
8.62
7.05
6.98
8.53
10.87
12.87
13.71
13.19
11.65
9.68
7.75
6.06
4.50
2.72
0.41
-2.58
-6.06
-9.47
-12.27
-14.05
-14.74
-14.48
-13.33
-10.90
-6.37
1.04
11.22
22.63
32.63
38.57
39.13
34.98
28.35
21.87
17.21
14.52
12.87
11.15
9.04
7.10
6.30
7.15
9.21
11.34
12.23
11.08
7.97
3.73
-0.52
-3.72
-5.41
-5.86
-5.89
-6.39
-7.88
-10.27
-13.03
-15.49
-17.24
-18.21
-18.75
-19.26
-19.84
-20.14
-19.34
-16.37
-10.58
-2.26
7.06
14.91
18.81
17.61
12.15
4.97
-0.79
-3.07
-1.88
0.91
2.70
1.70
-2.09
-7.08
-11.11
-12.74
-12.00
-10.07
-8.43
-7.80
-7.72
-7.03
-4.75
-0.82
3.50
6.24
5.83
2.00
-3.89
-9.53
-12.95
-13.58
-12.47
-11.61
-12.74
-16.23
-20.83
-24.30
-24.54
-20.64
-13.05
-3.18
7.19
16.38
23.02
26.15
25.37
21.17
14.91
8.49
3.65
1.25
1.10
2.20
3.37
3.90
3.69
2.94
1.90
0.54
-1.30
-3.64
-6.27
-8.78
-10.86
-12.54
-14.07
-15.83
-18.08
-20.78
-23.57
-26.20
-28.67
-31.28
-34.39
-38.05
-41.72
-44.41
-45.52
-45.55
-46.08
-49.01
-55.23
-63.61
-71.08
-73.64
-67.63
-50.56
-21.35
19.21
67.96
118.78
162.77
189.82
191.65
165.29
114.82
50.41
-15.03
-70.07
-107.66
-125.47
-124.50
-107.45
-77.67
-39.00
4.22
47.33
86.02
116.59
136.15
142.39
134.05
111.52
77.56
37.24
-3.28
-38.48
-65.02
-81.97
-89.84
-89.41
-81.22
-65.97
-45.50
-23.15
-3.23
10.30
15.36
12.33
3.79
-6.51
-14.97
-19.18
-18.57
-14.34
-8.81
-4.14
-1.49
-0.55
-0.04
1.08
2.63
3.00
-0.17
-8.66
-22.50
-39.62
-56.54
-69.66
-76.71
-77.49
-73.99
-69.77
-68.72
-73.89
-86.76
-107.01
-132.68
-160.85
-188.19
-211.68
-228.93
-238.49
-239.62
-232.13
-216.31
-193.22
-165.09
-135.23
-107.85
-86.79
-74.15
-69.32
-69.00
-67.79
-59.87
-40.74
-9.12
31.82
74.17
106.47
116.90
97.85
49.74
-17.80
-88.77
-146.49
-179.72
-186.00
-170.85
-143.69
-112.97
-83.24
-55.22
-27.88
-1.00
23.89
44.42
59.38
69.74
78.79
90.49
107.51
130.39
157.93
188.52
221.87
259.26
302.36
350.94
401.27
446.28
478.39
491.95
485.47
461.38
424.06
377.70
325.64
271.56
221.07
182.78
164.27
167.63
186.64
208.03
216.63
201.72
161.24
101.86
37.60
-18.76
-60.58
-88.25
-106.07
-117.61
-123.11
-119.99
-105.47
-75.70
-31.34
22.10
76.46
124.48
163.04
193.23
218.41
241.74
269.26
303.95
345.15
389.19
431.61
469.42
501.82
529.30
521.63
460.74
344.99
192.14
29.40
-120.24
-244.47
-340.56
-411.35
-461.70
-492.25
-504.26
-500.58
-485.98
-465.78
-443.37
-421.02
-399.53
-378.56
-354.29
-324.00
-286.95
-244.52
-198.99
-152.01
-104.35
-60.75
-24.03
5.99
30.07
48.81
62.42
71.04
75.17
75.83
74.52
73.59
75.73
81.61
88.62
91.00
82.09
57.60
18.33
-29.45
-75.84
-111.58
-131.86
-137.61
-133.83
-126.30
-118.89
-112.64
-106.73
-99.98
-92.62
-86.03
-81.68
-79.92
-79.56
-78.75
-76.06
-71.75
-67.63
-65.98
-67.45
-69.79
-68.13
-57.27
-34.29
-0.56
38.68
76.77
108.20
129.91
140.85
139.41
125.94
100.99
67.08
29.61
-4.12
-27.74
-38.45
-38.03
-31.38
-23.48
-17.50
-13.97
-11.56
-8.81
-5.33
-1.71
1.18
2.98
4.13
5.38
7.44
10.65
14.80
19.23
23.17
26.06
27.80
28.73
29.21
29.37
29.15
28.14
25.76
21.53
15.35
7.56
-1.10
-9.38
-16.79
-22.87
-27.51
-30.81
-33.03
-34.36
-34.90
-34.92
-34.19
-32.81
-30.93
-28.82
-26.72
-24.84
-23.27
-22.00
-20.95
-19.96
-19.04
-18.15
-17.33
-16.60
-15.98
-15.48
-15.10
-14.83
-14.63
-14.54
-14.56
-14.71
-15.00
-15.42
-15.98
-16.69
-17.52
-18.47
-19.51
-20.67
-21.96
-23.40
-24.97
-26.69
-28.56
-30.60
-32.77
-35.00
-37.30
-39.59
-41.79
-43.73
-45.23
-46.06
-45.96
-45.07
-42.73
-38.70
-32.88
-25.42
-16.73
-7.33
2.11
10.91
18.55
24.71
29.19
31.99
33.18
32.95
31.54
29.24
26.33
23.24
20.52
18.61
17.76
17.99
18.99
20.26
21.32
21.60
21.09
20.26
19.75
20.11
21.38
23.16
24.66
25.17
23.89
21.08
17.85
15.64
15.54
17.72
21.37
25.07
27.49
27.12
24.18
20.21
17.07
16.16
17.58
20.20
22.21
21.64
15.66
2.73
-17.57
-44.11
-73.90
-102.29
-123.97
-134.66
-126.62
-102.19
-70.13
-41.36
-23.55
-18.67
-23.77
-33.91
-45.02
-55.29
-65.53
-75.61
-84.39
-90.07
-91.29
-88.28
-82.62
-76.12
-69.78
-64.61
-57.68
-45.70
-26.35
0.60
33.22
68.49
103.42
136.33
163.88
186.26
204.64
220.43
234.64
247.52
258.04
263.58
260.26
244.07
213.82
172.01
124.75
79.72
43.25
17.92
2.29
-7.51
-15.47
-23.94
-33.62
-44.70
-57.84
-74.58
-96.74
-125.40
-158.41
-192.37
-221.61
-239.19
-239.45
-220.35
-184.99
-140.87
-97.15
-61.68
-36.12
-18.43
-4.48
9.33
24.21
38.91
51.02
58.94
62.98
64.55
65.08
65.12
63.98
60.23
52.56
40.70
24.88
7.77
-8.12
-21.35
-31.71
-40.05
-47.74
-55.94
-65.15
-74.98
-84.18
-91.60
-96.49
-98.66
-98.40
-96.61
-93.60
-89.55
-84.55
-78.30
-70.95
-63.03
-55.34
-48.83
-44.36
-42.55
-43.74
-47.91
-54.41
-62.62
-71.97
-82.01
-92.35
-102.75
-113.01
-123.12
-133.18
-142.87
-152.05
-160.56
-168.17
-174.52
-179.12
-181.16
-179.55
-175.81
-170.31
-163.32
-155.07
-145.84
-135.88
-125.53
-115.11
-105.00
-95.57
-86.78
-78.61
-71.03
-63.98
-57.34
-51.06
-45.12
-39.64
-34.86
-30.68
-27.05
-23.87
-20.96
-18.19
-15.50
-12.97
-10.83
-9.35
-8.54
-8.32
-8.41
-8.42
-7.99
-6.96
-5.45
-3.88
-2.76
-2.34
-2.46
-2.45
-1.23
2.31
8.96
18.78
31.07
44.74
58.78
72.83
87.42
103.88
123.59
147.30
174.55
203.46
231.37
255.76
275.40
291.10
305.71
323.25
347.20
378.41
413.99
447.74
472.31
481.80
473.65
448.78
410.11
361.05
305.06
246.40
190.81
144.76
112.98
96.17
90.43
89.52
88.62
86.88
86.72
90.42
96.73
100.14
94.16
75.89
49.15
23.67
10.72
17.66
44.18
82.38
120.18
146.58
156.20
151.42
141.09
136.18
144.42
166.24
194.74
219.65
233.22
234.63
229.97
227.67
232.33
241.43
246.73
239.75
217.44
184.32
149.88
122.86
106.20
95.55
82.07
57.49
18.44
-32.15
-87.18
-139.25
-183.87
-220.98
-254.07
-287.79
-325.64
-368.87
-416.83
-468.09
-520.95
-573.16
-621.26
-659.98
-683.17
-685.62
-665.09
-623.51
-566.37
-500.85
-433.70
-369.84
-311.84
-260.59
-215.68
-175.82
-138.95
-102.53
-63.87
-20.52
29.07
84.69
143.38
198.48
240.90
261.87
256.78
228.39
186.79
145.62
116.35
103.40
103.18
107.47
108.69
104.05
95.73
87.93
82.99
79.48
73.54
62.29
46.66
31.67
23.87
27.43
41.42
59.78
74.25
78.32
70.22
53.53
35.27
22.43
18.89
23.82
32.63
39.75
41.44
37.63
31.35
26.40
24.99
26.36
27.41
24.68
16.24
2.86
-12.80
-27.64
-39.63
-48.36
-54.65
-59.38
-62.80
-64.60
-64.46
-62.77
-60.73
-59.86
-61.14
-64.44
-68.42
-71.09
-70.81
-67.30
-62.09
-57.81
-56.97
-60.48
-66.94
-72.98
-74.60
-68.81
-54.76
-33.85
-8.94
16.83
41.11
62.73
81.33
96.85
109.03
117.54
122.17
123.23
121.66
118.80
116.07
114.45
114.17
114.56
114.32
111.94
106.28
96.81
83.73
67.69
49.52
30.31
11.59
-4.41
-15.16
-18.60
-14.29
-3.93
9.05
20.73
28.35
31.29
31.03
30.11
30.90
34.51
40.65
48.13
55.56
61.76
65.90
67.36
65.72
60.93
53.52
44.62
35.60
27.53
20.86
15.24
9.98
4.63
-0.51
-4.49
-6.18
-4.77
-0.05
7.91
18.98
32.49
46.54
57.32
59.98
50.57
28.30
-3.50
-38.39
-69.70
-93.31
-108.78
-118.23
-123.96
-126.63
-125.19
-118.46
-106.84
-92.89
-80.36
-72.24
-69.26
-69.94
-71.73
-72.44
-70.98
-67.11
-61.04
-53.29
-44.76
-36.89
-31.61
-30.48
-33.78
-40.06
-46.68
-51.02
-51.78
-49.39
-45.56
-42.24
-40.51
-40.30
-40.83
-41.37
-41.67
-41.89
-42.05
-41.42
-38.71
-32.32
-21.34
-6.24
10.85
26.72
38.29
43.74
43.28
39.06
34.28
31.59
32.04
34.83
37.99
39.61
38.78
35.85
31.98
28.32
25.58
24.09
23.98
25.29
27.89
31.10
33.81
34.80
33.38
29.68
24.59
19.24
14.50
11.01
9.24
9.77
13.04
18.58
24.76
29.18
29.81
26.26
20.32
14.87
12.29
13.12
15.87
18.19
18.44
16.79
14.92
14.74
16.91
20.49
23.48
24.18
22.17
18.21
13.58
9.24
5.39
1.78
-1.61
-4.31
-5.59
-4.93
-2.45
1.07
4.54
7.02
8.10
8.00
7.25
6.28
5.34
4.43
3.66
3.50
4.60
7.44
11.83
16.75
20.67
22.26
20.89
16.99
11.75
6.42
1.92
-1.35
-3.12
-3.13
-1.13
2.65
7.27
10.98
11.70
7.86
-0.81
-12.82
-25.14
-34.31
-37.83
-35.34
-28.72
-20.98
-14.71
-10.97
-9.26
-8.31
-7.08
-5.13
-2.31
1.57
6.69
12.79
18.48
21.63
20.54
15.28
7.94
1.51
-1.92
-2.35
-1.47
-1.10
-1.73
-2.28
-1.34
1.38
4.54
5.89
3.96
-0.86
-6.50
-10.50
-11.56
-10.17
-8.03
-6.91
-7.59
-9.64
-11.92
-13.30
-13.18
-11.65
-9.41
-7.39
-6.49
-7.11
-9.03
-11.50
-13.65
-14.91
-15.12
-14.49
-13.24
-11.30
-8.38
-4.30
0.52
5.06
8.18
9.22
8.34
6.43
4.59
3.73
4.20
5.77
7.71
9.10
9.19
7.67
4.93
1.81
-0.75
-2.20
-2.59
-2.38
-2.06
-1.79
-1.40
-0.58
0.73
2.19
3.15
3.07
1.82
-0.19
-2.27
-3.84
-4.74
-5.26
-5.70
-6.07
-5.99
-5.12
-3.60
-2.29
-2.43
-4.77
-9.12
-14.20
-18.30
-20.11
-19.23
-16.18
-12.01
-7.65
-3.52
0.38
4.23
8.16
11.97
15.15
16.94
16.60
13.81
9.23
4.30
0.75
-0.32
0.89
3.15
4.91
5.35
4.75
4.07
4.02
4.57
4.99
4.46
2.74
0.32
-1.88
-3.20
-3.58
-3.57
-3.89
-4.88
-6.35
-7.67
-8.20
-7.53
-5.71
-3.22
-0.79
0.77
0.76
-1.25
-5.17
-10.34
-15.55
-19.49
-21.17
-20.25
-17.26
-13.19
-9.17
-5.94
-3.79
-2.68
-2.35
-2.48
-2.81
-3.13
-3.33
-3.39
-3.37
-3.37
-3.48
-3.75
-4.22
-4.82
-5.52
-6.28
-7.04
-7.64
-7.73
-6.93
-5.11
-2.59
-0.19
1.25
1.44
0.81
0.31
0.92
2.92
5.67
7.99
8.81
7.77
5.45
2.91
1.26
1.13
2.44
4.44
5.97
5.83
3.30
-1.35
-6.76
-11.00
-12.43
-10.53
-6.10
-0.74
3.93
7.02
8.51
8.92
8.75
8.18
7.07
5.34
3.13
0.87
-0.88
-1.72
-1.65
-1.01
-0.33
-0.06
-0.34
-0.87
-1.08
-0.37
1.58
4.60
8.05
11.10
12.92
13.06
11.54
8.89
5.97
3.67
2.52
2.43
2.85
2.99
2.26
0.44
-2.28
-5.57
-9.06
-12.44
-15.31
-17.11
-17.31
-15.74
-12.95
-10.17
-8.83
-9.84
-12.93
-16.68
-19.13
-18.74
-15.02
-8.72
-1.33
5.66
11.27
15.29
17.99
19.73
20.61
20.46
19.12
16.59
13.30
9.99
7.42
6.00
5.51
5.16
4.13
2.16
-0.13
-1.49
-0.93
1.72
5.49
8.88
10.52
9.86
7.23
3.62
0.19
-2.09
-2.65
-1.50
0.69
2.84
3.80
2.98
0.70
-1.95
-3.85
-4.37
-3.84
-3.17
-3.07
-3.70
-4.71
-5.91
-7.61
-10.45
-14.38
-18.43
-20.87
-20.14
-15.88
-9.19
-2.14
3.55
7.26
10.14
13.39
17.20
20.63
22.52
22.71
22.39
23.27
26.22
31.77
39.18
47.25
55.42
63.88
72.97
82.61
92.21
101.56
113.92
133.28
162.08
198.78
237.26
269.15
287.85
291.96
286.53
283.36
293.07
319.48
357.39
394.89
419.12
422.03
403.09
352.43
270.45
165.23
50.33
-60.27
-157.02
-235.57
-294.70
-334.66
-357.00
-362.49
-354.45
-338.12
-319.25
-302.27
-288.85
-278.01
-267.75
-256.47
-242.06
-224.33
-204.79
-185.84
-169.56
-156.60
-146.25
-137.13
-128.18
-117.93
-106.02
-93.11
-80.48
-69.32
-60.10
-52.54
-45.98
-39.87
-33.37
-26.11
-18.19
-10.00
-2.05
5.42
12.33
18.67
24.37
29.39
33.53
36.44
37.75
37.14
34.51
29.93
23.74
16.42
8.55
0.77
-6.35
-12.28
-16.65
-19.19
-20.04
-19.37
-17.47
-14.70
-11.34
-7.66
-3.70
0.66
5.75
11.68
18.75
27.30
37.55
49.55
63.08
77.74
92.96
108.16
122.19
134.22
143.72
150.50
154.70
156.74
157.34
157.35
157.70
158.50
159.85
161.67
163.63
165.07
165.08
162.39
155.17
146.36
136.75
126.92
117.24
107.96
99.25
91.20
83.87
77.38
71.94
66.72
61.23
55.22
48.66
41.56
33.98
26.14
18.49
11.74
5.75
0.53
-3.94
-7.83
-11.54
-15.60
-20.34
-25.73
-31.31
-37.53
-44.59
-52.56
-61.56
-71.98
-84.17
-98.07
-112.81
-126.85
-140.77
-154.77
-168.68
-182.41
-196.72
-212.78
-231.33
-251.92
-272.93
-296.63
-323.90
-353.80
-384.50
-415.15
-446.43
-479.72
-516.12
-555.25
-601.53
-653.85
-704.29
-741.31
-756.26
-747.72
-721.74
-688.63
-657.79
-642.53
-645.22
-656.73
-662.74
-652.89
-625.52
-586.13
-542.69
-449.85
-295.82
-102.22
89.45
245.89
354.31
417.34
444.62
445.02
432.69
408.98
375.77
338.20
303.25
276.04
258.37
249.52
248.01
253.19
257.69
257.57
253.56
249.30
247.68
249.13
252.34
255.79
258.95
257.34
249.20
236.10
221.71
209.27
200.24
194.76
192.55
193.64
195.96
198.58
202.02
207.76
217.32
231.79
251.78
277.01
305.59
332.67
352.45
360.25
354.50
337.26
313.18
287.31
263.02
241.38
221.84
203.81
187.54
173.73
162.40
152.08
140.31
125.19
106.90
87.92
71.39
59.07
49.92
40.91
28.98
13.29
-4.18
-19.75
-30.21
-34.72
-35.05
-34.43
-35.66
-39.78
-46.03
-52.75
-58.63
-63.12
-66.21
-67.65
-66.85
-63.35
-57.82
-52.34
-49.67
-51.61
-57.63
-64.58
-68.04
-64.58
-53.46
-36.89
-18.70
-2.51
9.66
17.66
22.38
24.69
24.87
22.82
18.72
13.52
8.95
6.68
7.78
12.02
17.76
22.67
24.53
22.39
17.04
10.92
6.88
6.92
11.03
17.26
22.68
24.84
22.90
18.03
12.66
9.29
9.40
12.46
15.98
16.49
11.00
-1.12
-17.19
-31.86
-39.23
-35.68
-21.94
-2.90
14.76
25.42
26.98
20.97
10.69
-0.88
-12.52
-24.38
-36.50
-47.24
-53.35
-51.53
-40.67
-23.15
-4.23
10.31
16.96
15.99
10.73
5.34
2.48
2.19
2.61
2.01
0.25
-1.32
-1.27
0.27
1.45
-0.01
-4.90
-11.72
-17.37
-19.26
-17.07
-12.88
-9.92
-10.81
-16.22
-24.56
-32.83
-37.66
-36.35
-27.99
-14.34
0.12
9.49
9.26
-0.85
-16.08
-28.82
-32.96
-27.70
-18.33
-13.33
-18.89
-34.82
-54.42
-68.18
-69.70
-59.44
-44.44
-34.05
-34.79
-47.01
-65.18
-81.25
-88.71
-85.14
-72.44
-55.04
-37.16
-21.14
-7.08
5.86
17.72
26.90
30.55
26.33
14.17
-3.00
-20.02
-31.51
-34.20
-28.27
-17.26
-6.50
-0.86
-2.94
-12.33
-26.04
-39.62
-48.88
-51.34
-47.02
-38.21
-28.53
-21.14
-17.45
-16.84
-17.63
-18.30
-18.57
-19.10
-20.76
-23.75
-27.12
-29.09
-27.73
-22.06
-12.69
-2.18
5.71
7.60
2.32
-8.01
-18.65
-24.66
-23.50
-16.39
-7.44
-1.10
0.17
-3.14
-8.80
-14.92
-21.00
-27.14
-32.41
-34.11
-28.77
-14.80
5.54
26.71
42.54
49.54
48.70
44.36
41.29
41.89
45.08
47.61
46.53
41.19
33.58
27.18
24.77
26.88
31.52
35.04
34.01
27.06
15.93
4.84
-1.44
-0.16
7.60
17.45
23.78
22.96
15.31
4.71
-3.73
-6.82
-4.99
-1.58
-0.36
-3.24
-9.41
-16.25
-21.42
-23.93
-24.19
-23.00
-20.78
-17.55
-13.61
-10.01
-8.40
-10.35
-16.13
-24.22
-31.71
-35.36
-33.11
-24.76
-12.04
2.29
15.34
25.14
30.70
31.94
29.27
23.39
15.53
7.40
1.08
-1.81
-0.79
3.01
7.12
8.94
6.90
1.37
-5.51
-10.83
-12.53
-10.39
-6.05
-2.04
-0.28
-1.24
-3.96
-7.17
-10.09
-12.84
-15.96
-19.56
-22.94
-25.02
-25.40
-24.68
-24.26
-25.13
-26.97
-28.22
-27.18
-23.35
-17.97
-13.59
-12.69
-16.49
-24.15
-33.03
-39.60
-40.74
-35.15
-23.74
-9.36
4.62
15.82
23.65
28.89
32.32
34.03
33.38
30.04
24.92
20.11
17.66
18.42
21.48
24.58
25.67
23.55
18.39
11.45
4.52
-0.59
-2.57
-1.09
2.77
6.95
9.23
8.37
4.57
-0.92
-6.57
-11.30
-14.72
-16.83
-17.73
-17.82
-17.69
-17.96
-18.62
-18.82
-17.23
-13.20
-7.91
-4.20
-5.24
-12.56
-24.86
-38.35
-48.34
-51.13
-45.32
-31.84
-13.55
5.48
21.04
29.96
31.22
26.35
18.72
11.86
7.95
7.24
8.60
10.80
13.12
15.16
15.99
14.03
7.78
-2.75
-15.13
-25.26
-28.80
-23.84
-12.22
0.31
6.01
-2.02
-26.70
-65.24
-109.74
-149.92
-176.81
-185.61
-176.83
-155.06
-126.88
-98.76
-75.96
-62.23
-59.51
-67.54
-83.22
-100.93
-114.39
-119.33
-115.53
-106.38
-96.50
-88.52
-81.43
-71.27
-53.79
-27.31
6.63
44.06
81.14
116.36
151.06
188.29
230.45
276.96
323.35
362.22
386.05
390.31
375.35
346.05
309.21
270.14
230.56
188.75
141.92
89.08
32.18
-24.93
-79.01
-128.81
-174.61
-216.25
-251.52
-276.83
-289.36
-289.27
-279.83
-265.53
-249.46
-232.04
-211.99
-188.53
-163.43
-140.74
-124.91
-118.08
-118.84
-123.13
-126.63
-127.09
-124.92
-121.93
-119.29
-116.09
-109.25
-95.06
-71.26
-38.42
0.08
39.63
76.39
109.16
139.66
171.23
206.66
246.05
286.05
320.39
341.79
344.28
325.35
286.90
234.99
177.96
123.94
78.82
45.32
23.47
11.97
9.36
14.36
25.08
38.26
49.00
51.91
43.19
22.55
-6.16
-36.01
-59.66
-72.14
-72.33
-63.03
-49.30
-36.31
-27.47
-24.00
-25.30
-30.12
-37.37
-46.13
-55.40
-63.69
-69.25
-70.73
-68.14
-63.07
-58.05
-55.19
-54.90
-55.65
-55.07
-51.70
-46.26
-41.20
-39.00
-40.16
-42.60
-42.81
-38.32
-29.29
-18.63
-10.22
-6.57
-7.54
-10.88
-13.90
-14.95
-13.89
-10.90
-5.35
4.54
20.92
44.72
74.68
107.48
138.82
164.55
181.62
188.41
184.89
172.42
153.48
131.07
108.09
86.89
69.01
55.06
44.80
37.14
30.44
23.09
14.51
5.73
-0.72
-1.88
4.05
16.55
32.79
48.62
60.03
64.30
60.42
49.11
32.65
14.73
-0.08
-7.57
-5.51
5.19
20.54
35.19
44.83
48.12
46.75
43.80
41.59
40.33
38.70
35.15
29.29
22.39
16.53
13.19
12.31
12.44
11.67
8.87
4.29
-0.64
-4.07
-4.90
-3.16
-0.37
1.39
0.77
-1.98
-5.14
-6.42
-4.25
1.25
8.72
15.87
21.08
24.26
26.57
29.21
32.67
36.67
40.44
43.85
46.63
48.29
48.56
47.62
46.32
46.27
49.47
57.05
68.29
78.93
82.49
73.48
49.82
13.67
-29.61
-73.62
-115.58
-149.16
-169.11
-174.62
-168.69
-155.10
-136.53
-114.99
-92.54
-71.28
-52.26
-36.43
-24.04
-13.85
-4.07
6.51
18.03
29.66
40.12
48.76
55.46
59.14
59.36
55.98
48.39
35.67
17.01
-7.54
-35.57
-63.96
-90.15
-111.96
-128.28
-139.22
-145.80
-149.50
-151.92
-154.34
-157.85
-162.29
-165.15
-162.10
-148.64
-122.54
-85.69
-43.96
-5.06
24.30
41.06
46.65
45.29
41.31
37.21
33.32
28.98
23.89
18.80
15.05
13.68
14.48
16.06
16.63
14.76
10.35
4.47
-1.19
-5.13
-6.77
-6.61
-6.06
-6.71
-9.64
-14.83
-21.37
-27.86
-33.13
-36.76
-39.07
-40.86
-42.77
-45.02
-46.35
-44.94
-38.91
-27.14
-9.75
11.78
35.18
57.93
77.96
94.02
105.87
113.89
118.94
122.29
124.91
127.10
127.59
123.72
112.66
92.79
64.95
32.46
0.37
-26.31
-44.20
-52.33
-52.02
-46.20
-38.27
-30.75
-25.49
-22.44
-20.13
-16.54
-10.09
-0.33
11.81
24.65
36.69
47.17
56.12
63.67
69.85
74.31
76.70
75.98
70.83
60.65
45.17
25.01
1.55
-23.81
-49.55
-74.89
-99.16
-120.86
-137.82
-148.34
-152.59
-153.04
-153.14
-154.68
-156.07
-152.57
-139.05
-113.65
-79.87
-45.52
-18.93
-4.98
-2.96
-8.08
-14.43
-18.19
-18.90
-17.82
-16.21
-13.92
-9.82
-2.45
8.23
20.88
33.36
43.45
50.11
53.73
55.93
58.77
63.97
71.54
80.18
87.64
91.44
89.78
81.88
68.18
49.15
27.13
3.68
-20.02
-43.12
-64.79
-83.88
-99.31
-109.53
-113.16
-109.22
-98.17
-81.26
-60.48
-38.02
-15.67
5.46
25.14
42.86
59.42
74.99
89.44
102.03
111.72
117.78
120.24
120.06
118.74
119.30
121.31
123.61
124.21
121.03
112.75
99.55
83.29
66.73
52.74
43.09
38.68
38.92
41.96
44.73
43.35
34.22
15.39
-12.48
-46.28
-80.65
-109.57
-128.07
-133.49
-126.20
-108.96
-85.61
-59.56
-33.11
-7.11
18.07
41.55
61.39
74.93
80.19
77.28
69.36
61.51
58.15
60.51
65.46
66.79
58.23
36.95
5.09
-30.89
-61.62
-79.25
-81.24
-71.28
-57.12
-46.30
-42.39
-43.83
-46.16
-45.60
-42.15
-39.48
-42.01
-51.36
-64.67
-75.94
-79.32
-72.22
-56.27
-36.23
-17.51
-4.15
2.10
1.54
-4.15
-12.37
-20.29
-25.62
-27.62
-27.58
-28.04
-31.04
-36.48
-41.86
-43.57
-39.26
-29.51
-17.81
-8.70
-5.04
-6.47
-9.95
-11.86
-10.22
-5.76
-1.15
0.97
-0.37
-3.93
-7.19
-7.91
-5.27
-0.09
5.84
10.62
12.92
12.07
7.95
0.91
-8.16
-17.88
-26.57
-32.69
-35.34
-34.27
-29.85
-22.85
-14.41
-5.85
1.44
6.40
8.65
8.73
7.78
7.03
7.26
8.46
10.04
11.31
11.90
11.94
11.94
12.30
13.09
13.93
14.38
14.18
13.45
12.59
11.95
11.52
10.98
9.72
7.30
3.68
-0.72
-5.17
-8.90
-11.36
-12.52
-12.78
-12.84
-13.51
-15.41
-18.66
-23.03
-27.80
-31.94
-34.17
-33.25
-28.35
-19.57
-8.21
3.41
12.77
18.12
19.28
17.60
15.19
13.92
14.70
17.30
20.85
24.52
27.73
30.19
31.60
31.54
29.66
26.02
21.27
16.59
13.23
11.89
12.45
13.91
14.96
14.52
12.35
8.93
5.25
2.18
0.09
-1.20
-2.17
-3.43
-5.43
-8.57
-13.04
-18.66
-24.56
-29.23
-30.84
-28.19
-21.36
-11.91
-2.19
5.74
10.99
14.00
15.93
17.77
19.67
21.12
21.43
20.34
18.29
16.18
14.88
14.79
15.87
17.64
19.52
21.05
22.02
22.42
22.36
21.88
20.85
19.04
16.21
12.37
7.88
3.37
-0.53
-3.43
-5.39
-6.87
-8.55
-11.01
-14.60
-19.20
-24.21
-28.59
-31.02
-30.35
-26.06
-18.54
-9.05
0.76
9.36
15.80
19.82
21.74
22.08
21.30
19.81
17.85
15.75
13.83
12.39
11.64
11.47
11.57
11.50
10.89
9.75
8.34
7.07
6.22
5.76
5.33
4.46
2.88
0.62
-2.05
-4.73
-6.99
-8.57
-9.42
-9.83
-10.35
-11.57
-13.83
-16.89
-19.84
-21.42
-20.57
-16.88
-10.82
-3.57
3.54
9.43
13.63
16.20
17.52
18.08
18.28
18.41
18.61
18.74
18.48
17.42
15.27
12.14
8.63
5.63
4.06
4.30
6.06
8.50
10.66
11.79
11.59
10.08
7.36
3.58
-1.00
-5.78
-9.94
-12.73
-13.88
-13.93
-13.98
-15.23
-18.20
-22.36
-26.14
-27.60
-25.29
-19.00
-9.82
0.14
8.72
14.57
17.52
18.42
18.43
18.43
18.61
18.71
18.30
17.19
15.59
13.87
12.38
11.17
10.10
8.95
7.74
6.78
6.56
7.49
9.57
12.20
14.28
14.66
12.63
8.28
2.64
-2.84
-6.87
-8.83
-8.95
-8.08
-7.33
-7.70
-9.81
-13.72
-18.76
-23.61
-26.63
-26.41
-22.35
-15.06
-6.14
2.47
9.28
13.71
16.08
17.17
17.67
17.96
18.07
17.93
17.61
17.23
16.83
16.47
16.13
15.80
15.54
15.33
15.06
14.57
13.74
12.67
11.58
10.77
10.36
10.19
9.97
9.34
8.04
5.96
3.14
-0.20
-3.85
-7.44
-10.59
-12.90
-14.21
-14.68
-14.74
-15.11
-16.36
-18.76
-21.92
-24.92
-26.62
-26.01
-22.72
-17.12
-10.19
-3.18
2.92
7.53
10.54
12.23
12.93
13.00
12.74
12.32
11.90
11.52
11.21
10.96
10.72
10.42
9.92
9.07
7.85
6.51
5.53
5.43
6.47
8.37
10.36
11.43
10.90
8.78
5.69
2.54
0.01
-1.77
-3.04
-4.16
-5.33
-6.48
-7.43
-8.10
-8.57
-9.04
-9.64
-10.39
-11.25
-12.39
-14.13
-16.80
-20.40
-24.28
-27.23
-27.81
-25.17
-19.38
-11.59
-3.51
3.24
7.73
9.93
10.41
9.86
8.79
7.39
5.83
4.37
3.39
3.11
3.47
4.03
4.23
3.69
2.46
0.97
-0.21
-0.61
-0.02
1.46
3.51
5.65
7.24
7.76
6.87
4.74
1.97
-0.69
-2.63
-3.79
-4.51
-5.40
-6.79
-8.64
-10.58
-12.17
-13.26
-14.08
-15.04
-16.55
-18.77
-21.37
-23.65
-24.62
-23.34
-19.40
-13.10
-5.55
1.73
7.33
10.58
11.65
11.36
10.59
9.77
8.82
7.34
5.08
2.24
-0.48
-2.23
-2.44
-1.20
0.73
2.31
2.71
1.78
0.16
-1.07
-1.06
0.36
2.40
3.73
3.19
0.42
-3.87
-8.25
-11.21
-12.00
-10.76
-8.41
-6.01
-4.30
-3.63
-4.07
-5.71
-8.61
-12.55
-16.77
-19.91
-20.50
-17.70
-11.79
-4.21
3.06
8.44
11.25
11.86
11.17
9.94
8.54
6.98
5.20
3.31
1.64
0.45
-0.06
-0.03
0.15
0.10
-0.34
-0.98
-1.38
-1.07
0.05
1.64
3.06
3.61
2.91
1.06
-1.49
-4.23
-6.80
-9.13
-11.15
-12.73
-13.69
-14.00
-14.03
-14.35
-15.35
-16.87
-18.13
-18.17
-16.48
-13.29
-9.38
-5.56
-2.18
0.89
3.93
6.93
9.49
10.96
10.95
9.66
7.67
5.66
4.06
2.95
2.24
1.89
1.83
2.00
2.21
2.17
1.74
1.03
0.32
-0.12
-0.37
-0.77
-1.69
-3.25
-5.21
-7.09
-8.52
-9.46
-10.18
-11.03
-12.21
-13.69
-15.38
-17.15
-18.82
-20.07
-20.40
-19.21
-16.14
-11.38
-5.73
-0.26
4.16
7.17
8.89
9.62
9.51
8.56
6.81
4.57
2.41
0.92
0.38
0.60
1.06
1.24
0.91
0.15
-0.71
-1.39
-1.75
-1.84
-1.83
-1.95
-2.47
-3.53
-5.10
-6.93
-8.60
-9.69
-10.05
-9.79
-9.27
-8.93
-9.10
-10.01
-11.72
-14.03
-16.41
-17.98
-17.81
-15.30
-10.54
-4.30
2.21
7.88
11.99
14.42
15.47
15.54
14.95
13.86
12.33
10.45
8.47
6.80
5.87
5.92
6.85
8.12
8.90
8.58
7.10
5.18
3.89
4.06
5.65
7.73
8.97
8.40
5.84
1.91
-2.44
-6.53
-10.12
-13.18
-15.54
-16.70
-16.11
-13.75
-10.22
-6.57
-3.50
-0.73
2.80
8.04
14.77
21.08
24.10
21.61
13.47
2.08
-8.56
-14.68
-14.35
-8.21
1.08
10.16
16.27
17.96
15.05
8.37
-0.59
-9.85
-17.39
-21.57
-21.65
-18.22
-13.20
-9.23
-8.59
-12.33
-19.72
-28.75
-37.05
-43.05
-46.65
-49.30
-53.12
-59.69
-68.98
-79.10
-87.14
-89.98
-85.02
-70.97
-48.38
-19.68
11.82
43.02
72.25
99.14
124.21
147.77
168.68
183.46
186.97
174.55
144.53
99.48
45.19
-11.45
-64.76
-108.92
-138.58
-150.68
-145.95
-128.18
-101.71
-69.98
-35.34
-0.26
32.40
59.65
79.24
90.72
95.78
98.06
100.24
102.97
104.63
101.98
91.50
70.53
37.99
-4.93
-54.23
-104.69
-150.14
-183.77
-199.46
-193.91
-168.64
-130.20
-87.98
-50.92
-24.84
-11.03
-7.14
-9.49
-15.11
-22.43
-30.56
-38.27
-42.63
-40.62
-30.73
-13.67
7.56
29.20
48.08
62.88
74.58
85.79
99.29
116.48
136.48
155.99
169.94
173.12
161.73
134.90
95.19
47.95
-0.28
-43.97
-80.54
-110.39
-135.32
-157.54
-177.97
-195.39
-207.06
-210.28
-204.13
-190.12
-171.54
-151.74
-132.68
-113.82
-92.87
-67.25
-35.54
1.39
39.98
74.34
97.32
101.96
83.56
41.54
-19.67
-91.07
-160.82
-217.00
-250.65
-257.82
-240.13
-203.48
-155.80
-104.75
-56.20
-13.75
20.92
47.45
66.46
79.58
89.51
99.99
115.04
137.73
168.93
206.42
245.06
278.05
299.14
304.73
294.96
273.39
245.43
216.19
188.98
164.86
143.39
123.69
105.32
88.38
73.17
59.76
47.84
36.88
26.54
16.85
8.33
1.85
-1.66
-1.62
1.95
8.42
16.67
25.48
33.74
40.57
45.31
47.47
46.76
43.17
37.01
28.82
19.17
8.55
-2.63
-13.88
-24.46
-33.40
-39.82
-43.24
-43.76
-42.11
-39.21
-35.88
-32.60
-29.47
-26.34
-23.00
-19.30
-15.15
-10.54
-5.48
-0.09
5.42
10.66
15.10
18.27
19.85
19.79
18.25
15.43
11.52
6.60
0.67
-6.13
-13.42
-20.61
-27.05
-32.31
-36.38
-39.56
-42.32
-44.92
-47.15
-48.42
-47.99
-45.32
-40.36
-33.61
-25.82
-17.74
-9.91
-2.63
3.82
9.01
12.35
13.28
11.53
7.42
1.83
-4.03
-8.97
-12.19
-13.36
-12.60
-10.33
-7.03
-3.15
0.96
5.00
8.58
11.30
12.76
12.77
11.46
9.25
6.74
4.55
3.00
2.14
1.61
0.87
-0.53
-2.74
-5.54
-8.37
-10.57
-11.61
-11.33
-9.96
-8.12
-6.53
-5.76
-6.01
-7.17
-8.99
-11.25
-13.79
-16.45
-18.86
-20.46
-20.56
-18.75
-15.21
-10.66
-6.23
-2.91
-1.19
-0.89
-1.35
-1.84
-1.85
-1.29
-0.31
0.80
1.83
2.65
3.17
3.33
3.05
2.27
1.03
-0.51
-2.08
-3.39
-4.23
-4.55
-4.47
-4.25
-4.15
-4.41
-5.08
-6.08
-7.20
-8.29
-9.41
-10.82
-12.78
-15.19
-17.41
-18.37
-17.10
-13.34
-7.80
-1.96
2.57
4.90
5.21
4.47
3.77
3.72
4.18
4.61
4.57
4.01
3.22
2.55
2.10
1.71
1.21
0.47
-0.41
-1.19
-1.72
-1.99
-2.15
-2.41
-2.92
-3.69
-4.65
-5.68
-6.69
-7.71
-8.90
-10.48
-12.52
-14.77
-16.64
-17.33
-16.25
-13.26
-8.93
-4.22
-0.18
2.55
3.90
4.34
4.50
4.84
5.44
6.08
6.51
6.71
6.90
7.46
8.59
10.13
11.59
12.35
12.03
10.67
8.75
6.86
5.51
4.86
4.72
4.71
4.45
3.78
2.74
1.48
0.17
-1.18
-2.59
-4.06
-5.39
-6.13
-5.80
-4.12
-1.23
2.31
5.66
8.18
9.60
10.10
10.15
10.15
10.28
10.42
10.39
10.08
9.55
9.03
8.67
8.50
8.35
7.96
7.16
5.95
4.53
3.22
2.30
1.88
1.92
2.15
2.27
1.99
1.21
-0.01
-1.41
-2.73
-3.83
-4.74
-5.64
-6.66
-7.73
-8.47
-8.41
-7.17
-4.79
-1.74
1.28
3.61
4.95
5.44
5.47
5.45
5.61
5.95
6.36
6.78
7.24
7.76
8.32
8.77
8.94
8.71
8.06
7.14
6.18
5.36
4.88
4.82
5.13
5.63
6.05
6.06
5.41
3.98
1.91
-0.49
-2.83
-4.77
-6.14
-6.97
-7.52
-8.10
-8.88
-9.80
-10.48
-10.40
-9.16
-6.77
-3.68
-0.63
1.68
2.96
3.37
3.34
3.32
3.53
3.91
4.30
4.53
4.54
4.43
4.28
4.19
4.18
4.24
4.28
4.22
3.94
3.40
2.68
1.95
1.45
1.32
1.46
1.62
1.44
0.61
-0.88
-2.79
-4.73
-6.25
-7.13
-7.38
-7.23
-6.95
-6.89
-7.27
-8.15
-9.46
-10.97
-12.24
-12.74
-12.00
-9.80
-6.37
-2.32
1.44
4.04
5.00
4.41
2.93
1.48
0.80
1.13
2.12
3.09
3.47
3.13
2.31
1.47
0.98
0.95
1.36
2.06
2.89
3.73
4.43
4.84
4.91
4.73
4.44
4.12
3.64
2.70
1.12
-0.97
-3.08
-4.59
-5.07
-4.59
-3.64
-2.83
-2.66
-3.17
-4.10
-5.10
-5.96
-6.66
-7.33
-8.10
-8.94
-9.68
-10.05
-9.95
-9.44
-8.85
-8.56
-8.83
-9.49
-9.98
-9.65
-8.04
-5.33
-2.28
0.13
1.20
0.94
0.05
-0.47
0.07
1.67
3.66
5.13
5.52
4.88
3.73
2.70
2.18
2.14
2.28
2.31
2.06
1.62
1.18
0.93
0.97
1.23
1.57
1.76
1.58
0.93
-0.08
-1.21
-2.16
-2.69
-2.82
-2.75
-2.81
-3.24
-3.99
-4.86
-5.53
-5.83
-5.83
-5.82
-6.03
-6.47
-6.86
-6.77
-5.89
-4.23
-2.13
-0.06
1.59
2.72
3.53
4.30
5.25
6.36
7.41
8.13
8.30
7.86
6.95
5.80
4.64
3.65
2.82
2.04
1.16
0.09
-1.10
-2.17
-2.81
-2.82
-2.22
-1.28
-0.40
0.05
-0.10
-0.83
-1.95
-3.25
-4.54
-5.74
-6.81
-7.69
-8.32
-8.62
-8.62
-8.46
-8.43
-8.86
-9.87
-11.34
-12.77
-13.50
-12.98
-11.10
-8.29
-5.36
-3.15
-2.03
-1.82
-1.86
-1.43
-0.23
1.49
3.07
3.87
3.60
2.55
1.33
0.57
0.56
1.13
1.84
2.24
2.09
1.44
0.56
-0.33
-1.03
-1.45
-1.58
-1.45
-1.15
-0.87
-0.84
-1.21
-1.97
-2.95
-3.90
-4.63
-5.17
-5.66
-6.27
-7.07
-8.02
-9.02
-10.00
-10.95
-11.73
-12.12
-11.75
-10.42
-8.26
-5.73
-3.42
-1.72
-0.65
0.11
0.95
2.00
3.03
3.65
3.65
3.19
2.77
2.89
3.76
5.18
6.62
7.48
7.37
6.29
4.52
2.60
1.11
0.49
0.87
2.02
3.34
4.15
3.97
2.66
0.55
-1.81
-3.91
-5.46
-6.49
-7.23
-7.92
-8.71
-9.63
-10.65
-11.69
-12.71
-13.52
-13.90
-13.62
-12.62
-11.07
-9.33
-7.79
-6.60
-5.60
-4.40
-2.69
-0.43
2.06
4.21
5.60
6.10
5.97
5.65
5.61
6.07
6.88
7.70
8.10
7.80
6.83
5.56
4.48
3.96
4.09
4.56
4.89
4.60
3.59
2.20
0.91
0.17
0.00
0.09
-0.02
-0.63
-1.71
-2.97
-4.11
-5.09
-6.09
-7.36
-8.84
-10.17
-10.78
-10.26
-8.69
-6.55
-4.50
-2.91
-1.71
-0.48
1.19
3.36
5.67
7.51
8.46
8.52
8.08
7.74
7.85
8.34
8.72
8.38
6.99
4.72
2.26
0.43
-0.17
0.51
2.05
3.74
4.93
5.27
4.76
3.63
2.19
0.69
-0.77
-2.08
-3.13
-3.87
-4.33
-4.79
-5.71
-7.52
-10.33
-13.78
-16.97
-18.85
-18.63
-16.25
-12.43
-8.32
-4.89
-2.58
-1.14
-0.02
1.22
2.65
4.02
5.03
5.63
6.03
6.56
7.36
8.27
8.85
8.74
7.84
6.44
5.06
4.18
4.06
4.51
5.14
5.40
4.91
3.61
1.73
-0.32
-2.14
-3.49
-4.36
-4.85
-5.19
-5.60
-6.25
-7.28
-8.69
-10.33
-11.84
-12.81
-12.91
-12.04
-10.40
-8.38
-6.31
-4.31
-2.20
0.28
3.26
6.54
9.65
12.00
13.25
13.38
12.72
11.73
10.83
10.17
9.66
9.12
8.43
7.59
6.73
5.95
5.24
4.47
3.55
2.52
1.52
0.69
0.02
-0.70
-1.80
-3.45
-5.50
-7.49
-8.92
-9.59
-9.74
-9.95
-10.71
-12.14
-13.87
-15.23
-15.68
-15.00
-13.38
-11.15
-8.55
-5.60
-2.20
1.58
5.46
8.85
11.24
12.40
12.54
12.16
11.80
11.82
12.23
12.82
13.27
13.31
12.87
12.02
10.96
9.91
9.08
8.60
8.50
8.60
8.60
8.15
6.97
4.95
2.28
-0.69
-3.52
-5.83
-7.39
-8.29
-8.84
-9.48
-10.53
-12.08
-13.91
-15.60
-16.70
-16.93
-16.22
-14.68
-12.42
-9.52
-5.99
-1.91
2.46
6.69
10.33
13.08
14.89
15.97
16.52
16.68
16.49
15.91
14.97
13.81
12.60
11.50
10.54
9.66
8.81
8.00
7.29
6.76
6.40
6.08
5.63
5.01
4.28
3.59
3.01
2.43
1.59
0.26
-1.62
-3.90
-6.31
-8.63
-10.74
-12.64
-14.36
-15.78
-16.67
-16.76
-15.98
-14.53
-12.76
-11.01
-9.31
-7.38
-4.79
-1.32
2.80
6.95
10.30
12.27
12.79
12.30
11.48
10.98
11.02
11.44
11.82
11.83
11.42
10.80
10.31
10.17
10.37
10.59
10.53
9.97
8.95
7.74
6.61
5.67
4.80
3.72
2.19
0.22
-2.00
-4.17
-6.05
-7.58
-8.88
-10.17
-11.62
-13.28
-15.02
-16.55
-17.52
-17.62
-16.75
-15.02
-12.74
-10.27
-7.80
-5.30
-2.58
0.52
3.98
7.46
10.57
12.88
14.23
14.68
14.48
13.93
13.23
12.44
11.61
10.87
10.35
10.21
10.45
10.89
11.30
11.46
11.30
10.97
10.63
10.32
9.92
9.10
7.54
5.19
2.26
-0.78
-3.39
-5.19
-6.10
-6.33
-6.32
-6.61
-7.69
-9.80
-12.90
-16.61
-20.30
-23.30
-25.12
-25.58
-24.82
-23.20
-21.08
-18.70
-16.05
-13.03
-9.53
-5.70
-1.99
1.02
2.86
3.41
2.98
2.21
1.76
1.92
2.45
2.53
1.21
-2.05
-6.94
-12.30
-16.58
-18.59
-18.12
-15.95
-13.58
-12.58
-14.07
-18.47
-25.54
-34.07
-41.66
-44.86
-39.84
-23.97
2.91
37.58
74.74
108.90
136.64
157.74
174.39
189.46
204.23
217.67
227.15
230.15
225.79
215.65
203.42
193.63
190.44
196.31
211.50
234.11
260.65
286.92
308.85
323.17
327.70
321.47
304.76
279.16
247.46
213.41
180.98
153.67
133.81
121.94
117.25
117.96
122.13
128.18
135.09
142.57
150.70
159.59
169.10
178.78
187.82
195.34
200.55
202.96
202.51
199.43
194.11
186.97
178.34
168.47
157.56
145.82
133.51
121.01
108.70
96.97
86.09
76.18
67.14
58.75
50.67
42.54
34.17
25.41
16.30
6.96
-2.44
-11.72
-20.77
-29.45
-37.73
-45.37
-52.30
-58.31
-63.25
-67.13
-70.03
-72.20
-73.97
-75.66
-77.49
-79.64
-82.15
-85.08
-88.67
-93.29
-99.50
-107.83
-118.58
-131.69
-146.66
-162.64
-178.80
-194.54
-209.75
-224.80
-240.21
-256.31
-272.89
-289.13
-303.81
-315.81
-324.69
-330.84
-335.46
-340.11
-345.93
-353.19
-361.26
-369.03
-375.61
-381.01
-386.32
-393.61
-405.53
-424.89
-454.33
-495.58
-548.36
-609.25
-671.35
-725.45
-762.70
-777.64
-770.19
-745.45
-711.41
-675.68
-643.00
-614.59
-589.21
-564.96
-540.53
-515.35
-488.98
-460.40
-428.01
-390.36
-347.06
-299.21
-249.19
-199.99
-154.13
-113.09
-77.11
-45.55
-17.54
7.37
29.05
46.75
59.64
67.20
69.57
67.59
62.51
55.61
47.92
40.05
32.23
24.55
17.09
10.09
3.84
-1.40
-5.51
-8.55
-10.69
-12.11
-13.03
-13.68
-14.41
-15.77
-18.44
-23.05
-29.79
-38.24
-47.26
-55.26
-60.62
-62.06
-58.92
-51.16
-38.96
-22.27
-0.54
27.16
61.71
103.19
150.40
200.80
251.01
297.91
339.44
375.11
405.83
433.10
458.29
482.32
505.74
528.84
551.16
570.88
584.56
587.52
576.04
549.59
511.69
468.94
428.22
393.79
365.87
341.56
317.06
290.83
264.30
240.48
221.76
208.06
197.06
186.14
174.09
161.18
149.62
142.37
140.93
144.14
148.25
147.81
138.28
117.44
84.66
43.67
1.72
-34.19
-60.02
-77.03
-91.53
-110.30
-137.19
-174.85
-219.13
-261.03
-292.97
-311.87
-319.03
-317.17
-304.77
-276.73
-235.24
-183.92
-128.07
-75.80
-33.36
-1.20
27.03
64.38
123.71
201.26
289.54
381.91
472.97
561.16
647.98
714.51
741.77
753.48
756.09
736.48
690.87
622.59
541.14
458.56
385.22
316.84
275.80
251.53
236.23
227.09
222.58
221.25
220.32
215.24
203.10
183.86
149.59
98.31
33.70
-39.22
-115.58
-191.89
-266.36
-336.97
-400.47
-460.32
-517.35
-570.73
-620.37
-667.01
-711.18
-751.78
-784.45
-801.80
-800.41
-778.06
-735.79
-678.46
-612.79
-544.87
-478.56
-414.98
-353.38
-294.36
-238.05
-184.02
-131.28
-78.70
-26.07
24.69
69.35
102.84
120.75
122.03
109.64
89.80
70.04
56.79
53.46
59.89
73.06
88.66
102.82
113.22
119.31
121.99
122.70
122.58
122.11
121.18
119.70
118.13
117.39
118.25
120.54
122.92
123.29
119.81
111.83
100.23
87.18
75.31
66.63
61.98
61.00
62.55
65.19
67.60
68.75
68.04
65.48
61.59
57.00
51.95
46.11
38.94
30.28
20.88
12.48
6.99
5.69
8.49
13.86
19.47
23.24
24.20
22.72
19.84
16.46
12.73
8.21
2.38
-4.75
-12.31
-18.70
-22.27
-22.03
-18.20
-12.38
-6.98
-4.28
-5.45
-9.80
-15.01
-18.02
-16.34
-9.26
1.96
14.68
26.09
34.35
39.22
41.64
42.85
43.66
44.23
44.11
42.81
40.06
36.05
31.34
26.71
22.79
19.86
17.66
15.65
13.16
9.66
5.11
-0.17
-5.54
-10.47
-14.76
-18.47
-21.69
-24.30
-25.81
-25.67
-23.68
-20.18
-16.16
-13.00
-11.98
-13.81
-18.31
-24.44
-30.67
-35.31
-36.91
-34.56
-28.17
-18.64
-8.02
1.10
6.47
6.93
2.87
-3.88
-10.99
-16.41
-19.02
-18.78
-16.36
-12.72
-8.92
-6.05
-5.12
-6.74
-10.68
-15.77
-20.21
-22.42
-21.78
-18.88
-15.19
-12.16
-10.50
-9.98
-9.72
-8.77
-6.40
-2.32
3.42
10.43
17.90
24.70
29.69
32.23
32.47
31.45
30.53
30.92
33.04
36.49
40.13
42.55
42.67
40.06
35.22
29.28
23.52
18.88
15.65
13.68
12.68
12.63
13.83
16.70
21.08
25.88
29.51
30.58
28.70
24.67
19.97
15.89
12.87
10.45
7.68
3.74
-1.73
-8.51
-15.91
-22.95
-28.61
-31.99
-32.64
-30.66
-26.83
-22.43
-18.65
-16.09
-14.58
-13.39
-11.85
-9.63
-6.81
-3.69
-0.57
2.39
4.99
6.81
7.38
6.54
4.85
3.60
4.30
7.81
13.78
20.62
26.30
29.36
29.56
27.72
25.05
22.35
19.71
16.81
13.37
9.54
5.92
3.12
1.18
-0.52
-2.99
-7.03
-12.57
-18.75
-24.28
-28.14
-30.01
-30.38
-30.32
-30.77
-32.21
-34.36
-36.45
-37.54
-36.99
-34.64
-30.87
-26.50
-22.54
-19.89
-19.06
-19.83
-21.25
-22.19
-21.94
-20.61
-18.97
-17.87
-17.65
-17.92
-18.01
-17.50
-16.71
-16.74
-18.81
-23.61
-30.81
-39.40
-48.05
-55.62
-61.48
-65.29
-66.88
-66.23
-63.71
-60.29
-57.30
-56.03
-57.20
-60.47
-64.53
-67.53
-67.84
-64.82
-58.76
-50.65
-41.45
-31.63
-21.04
-9.39
3.20
16.04
27.97
38.09
46.39
54.09
62.87
73.72
85.90
97.16
105.28
109.70
111.84
113.69
115.68
115.40
108.89
93.35
69.85
43.66
21.74
9.06
5.71
7.13
6.99
0.91
-11.30
-26.24
-39.67
-49.14
-55.02
-59.88
-66.58
-76.50
-88.65
-99.73
-105.39
-101.96
-87.94
-64.40
-34.29
-0.90
33.46
67.63
100.83
131.57
157.42
175.48
183.54
180.85
168.23
147.34
120.23
89.37
57.80
29.09
6.58
-7.81
-14.56
-16.34
-16.94
-19.66
-26.10
-36.05
-47.97
-59.70
-69.23
-75.13
-76.94
-75.37
-72.12
-69.08
-67.54
-67.59
-68.13
-67.68
-65.25
-60.64
-54.26
-46.63
-37.90
-28.00
-17.10
-6.01
3.83
11.07
15.36
17.79
20.59
26.15
35.82
49.25
64.78
80.20
93.92
105.10
112.98
116.11
112.26
99.51
78.01
51.17
24.90
5.31
-4.39
-5.30
-1.86
0.70
-0.76
-6.26
-13.73
-21.07
-27.67
-34.24
-41.57
-49.04
-54.55
-55.75
-51.66
-43.71
-35.20
-29.77
-29.60
-34.72
-43.29
-52.59
-60.02
-63.58
-62.17
-55.45
-43.89
-28.80
-12.31
3.12
15.23
22.70
25.47
24.58
21.51
17.62
13.71
9.87
5.44
-0.89
-10.75
-25.59
-46.10
-71.75
-100.49
-129.07
-153.88
-172.04
-182.31
-185.62
-184.62
-182.77
-183.08
-187.14
-194.64
-203.77
-211.98
-217.00
-217.59
-213.51
-205.11
-192.81
-176.77
-157.20
-134.66
-109.91
-83.45
-54.57
-21.35
18.39
65.41
117.51
169.35
214.19
246.20
262.36
263.35
253.57
239.75
229.09
227.31
236.66
255.18
277.23
295.74
305.20
303.77
293.46
278.06
260.33
240.07
214.51
180.41
136.34
83.88
27.34
-27.47
-74.42
-108.23
-125.57
-126.14
-113.13
-92.33
-70.09
-51.00
-36.37
-24.39
-11.91
3.34
21.74
42.13
62.82
82.63
100.86
116.85
129.44
137.11
138.49
132.91
120.59
102.45
79.92
54.74
29.07
5.27
-14.65
-29.64
-40.08
-47.30
-52.73
-56.90
-59.20
-58.45
-54.17
-47.33
-40.19
-35.20
-33.68
-35.13
-37.65
-39.08
-38.26
-35.46
-31.89
-28.72
-26.46
-24.91
-23.70
-22.86
-22.86
-24.12
-26.46
-28.97
-30.40
-29.87
-27.36
-23.71
-20.21
-18.14
-18.27
-20.63
-24.54
-28.84
-32.21
-33.54
-32.26
-28.46
-22.84
-16.39
-10.00
-4.34
0.17
3.32
4.99
5.30
4.66
3.79
3.41
3.98
5.39
7.10
8.38
8.69
7.75
5.60
2.50
-1.14
-4.80
-7.84
-9.75
-10.29
-9.76
-8.94
-8.80
-10.07
-12.90
-16.79
-20.91
-24.46
-27.15
-29.16
-30.87
-32.48
-33.68
-33.81
-32.15
-28.42
-22.93
-16.47
-10.01
-4.35
0.10
3.32
5.49
6.88
7.81
8.58
9.38
10.23
10.94
11.29
11.17
10.68
10.06
9.45
8.68
7.33
5.03
1.78
-1.92
-5.23
-7.49
-8.53
-8.75
-8.90
-9.69
-11.50
-14.29
-17.81
-21.60
-25.13
-27.73
-28.73
-27.63
-24.37
-19.32
-13.27
-7.15
-1.55
3.22
7.17
10.40
12.83
14.24
14.46
13.57
11.97
10.23
8.89
8.17
7.97
7.89
7.50
6.48
4.75
2.42
-0.17
-2.67
-4.73
-6.24
-7.31
-8.18
-9.18
-10.48
-12.11
-13.94
-15.79
-17.47
-18.63
-18.91
-17.84
-15.08
-10.56
-4.63
2.05
8.68
14.51
18.97
21.78
22.98
22.94
22.27
21.63
21.54
22.22
23.46
24.83
25.74
25.77
24.61
22.26
18.96
15.12
11.32
8.02
5.48
3.60
2.11
0.65
-1.04
-3.11
-5.55
-8.36
-11.44
-14.51
-17.04
-18.31
-17.75
-15.18
-10.96
-5.90
-0.95
3.23
6.45
8.92
11.07
13.22
15.49
17.77
19.91
21.81
23.29
24.20
24.33
23.56
21.92
19.64
17.05
14.42
11.90
9.50
7.27
5.33
3.85
2.96
2.53
2.20
1.51
0.18
-1.85
-4.44
-7.45
-10.82
-14.46
-18.03
-20.84
-22.01
-20.83
-17.15
-11.46
-4.77
1.89
7.73
12.45
16.12
18.92
21.07
22.68
23.91
24.86
25.58
25.98
25.90
25.17
23.76
21.85
19.73
17.73
16.04
14.68
13.53
12.46
11.34
10.06
8.52
6.66
4.51
2.16
-0.23
-2.56
-4.91
-7.51
-10.62
-14.24
-18.09
-21.61
-24.23
-25.49
-25.14
-23.13
-19.51
-14.55
-8.64
-2.36
3.70
9.12
13.79
17.78
21.12
23.60
24.96
25.14
24.49
23.75
23.54
23.99
24.51
24.16
22.32
19.13
15.40
12.19
10.14
9.15
8.57
7.71
6.23
4.27
2.18
0.18
-1.75
-3.81
-6.00
-8.12
-9.81
-10.91
-11.66
-12.60
-14.24
-16.57
-18.91
-20.21
-19.54
-16.62
-11.94
-6.38
-0.88
3.96
7.94
11.04
13.26
14.58
15.06
15.04
15.05
15.50
16.40
17.23
17.21
15.76
12.93
9.48
6.50
4.85
4.73
5.60
6.58
6.89
6.30
5.09
3.80
2.85
2.28
1.83
1.20
0.21
-1.07
-2.39
-3.50
-4.38
-5.12
-5.97
-7.15
-8.72
-10.58
-12.56
-14.53
-16.42
-18.20
-19.68
-20.48
-20.04
-17.95
-14.18
-9.26
-4.17
0.09
2.87
4.16
4.51
4.65
5.13
6.10
7.40
8.74
9.87
10.71
11.23
11.41
11.20
10.62
9.69
8.56
7.40
6.29
5.21
4.10
2.93
1.85
1.06
0.74
0.89
1.26
1.39
0.86
-0.57
-2.73
-5.15
-7.23
-8.54
-9.02
-9.03
-9.13
-9.79
-11.17
-13.04
-14.98
-16.56
-17.53
-17.86
-17.63
-16.83
-15.39
-13.18
-10.21
-6.74
-3.20
-0.07
2.29
3.77
4.50
4.73
4.65
4.50
4.42
4.59
5.08
5.82
6.57
7.05
7.10
6.78
6.29
5.87
5.55
5.20
4.57
3.62
2.54
1.74
1.57
2.08
2.93
3.59
3.55
2.58
0.84
-1.38
-3.71
-6.01
-8.32
-10.71
-13.10
-15.21
-16.72
-17.42
-17.48
-17.34
-17.39
-17.71
-17.90
-17.24
-15.10
-11.39
-6.59
-1.70
2.28
4.72
5.44
4.77
3.25
1.48
0.04
-0.62
-0.28
1.05
3.03
5.12
6.73
7.39
7.01
5.77
4.12
2.56
1.45
0.92
0.90
1.12
1.28
1.15
0.67
-0.06
-0.75
-1.16
-1.24
-1.16
-1.29
-2.09
-3.79
-6.29
-9.15
-11.76
-13.63
-14.51
-14.57
-14.31
-14.35
-15.10
-16.57
-18.35
-19.74
-20.15
-19.23
-16.94
-13.53
-9.37
-4.88
-0.56
3.06
5.52
6.62
6.48
5.62
4.65
4.18
4.42
5.22
6.22
7.13
7.77
8.13
8.14
7.67
6.55
4.70
2.35
-0.02
-1.83
-2.67
-2.46
-1.47
-0.21
0.77
1.08
0.60
-0.57
-2.23
-4.14
-6.08
-7.91
-9.50
-10.70
-11.45
-11.75
-11.71
-11.58
-11.70
-12.30
-13.46
-14.91
-16.07
-16.31
-15.13
-12.44
-8.59
-4.24
-0.17
2.99
4.88
5.56
5.31
4.54
3.67
2.93
2.45
2.30
2.54
3.15
4.12
5.24
6.12
6.32
5.47
3.60
1.12
-1.29
-2.91
-3.35
-2.74
-1.67
-0.89
-1.02
-2.22
-4.12
-6.02
-7.20
-7.24
-6.26
-4.86
-3.91
-4.26
-6.34
-9.96
-14.33
-18.29
-20.64
-20.52
-17.74
-12.80
-6.73
-0.70
4.33
7.83
9.78
10.40
10.05
9.03
7.61
6.12
4.94
4.34
4.41
4.92
5.36
5.22
4.20
2.40
0.33
-1.42
-2.39
-2.46
-1.86
-1.07
-0.56
-0.66
-1.42
-2.71
-4.21
-5.59
-6.59
-7.11
-7.29
-7.40
-7.79
-8.79
-10.50
-12.80
-15.31
-17.44
-18.65
-18.56
-17.02
-14.23
-10.58
-6.63
-2.95
0.02
2.10
3.35
4.05
4.50
4.94
5.51
6.16
6.76
7.20
7.46
7.50
7.39
7.13
6.74
6.22
5.66
5.10
4.50
3.70
2.49
0.70
-1.64
-4.25
-6.73
-8.66
-9.85
-10.33
-10.38
-10.33
-10.48
-11.04
-12.06
-13.40
-14.85
-16.13
-17.01
-17.26
-16.77
-15.42
-13.15
-10.03
-6.23
-2.12
1.84
5.24
7.78
9.33
10.01
10.02
9.60
8.88
7.90
6.66
5.19
3.66
2.35
1.54
1.37
1.64
1.93
1.71
0.75
-0.79
-2.47
-3.78
-4.41
-4.47
-4.25
-4.00
-3.95
-4.21
-4.93
-6.30
-8.48
-11.35
-14.49
-17.19
-18.64
-18.29
-15.98
-12.06
-7.28
-2.58
1.27
3.79
5.01
5.29
5.19
5.19
5.55
6.28
7.22
8.13
8.76
8.97
8.73
8.14
7.40
6.70
6.11
5.49
4.64
3.31
1.52
-0.51
-2.36
-3.52
-3.68
-2.74
-0.96
1.07
2.51
2.52
0.56
-3.35
-8.43
-13.28
-16.27
-15.97
-11.54
-3.04
8.48
21.07
32.27
39.78
42.20
39.60
33.69
27.20
22.94
22.73
26.84
33.91
41.55
47.09
48.27
43.74
33.31
18.05
0.06
-17.90
-33.27
-44.37
-50.95
-54.04
-55.37
-56.56
-58.45
-60.93
-63.22
-64.36
-63.64
-60.75
-55.65
-48.48
-39.52
-29.22
-18.43
-8.34
-0.13
5.46
8.46
9.75
10.67
12.33
15.04
18.16
20.46
20.81
18.81
14.90
10.11
5.53
1.92
-0.39
-1.32
-0.85
0.85
3.43
6.20
8.27
8.99
8.34
7.14
6.68
8.17
12.01
17.56
23.42
28.08
30.50
30.51
28.65
25.72
22.37
18.97
15.72
12.88
10.88
10.20
11.11
13.35
16.16
18.65
20.17
20.56
20.15
19.50
19.09
19.12
19.49
19.81
19.70
18.87
17.29
15.39
13.93
13.81
15.83
20.30
26.82
34.42
41.89
48.25
53.15
56.87
59.96
62.82
65.51
67.83
69.78
71.82
74.90
80.08
87.90
98.17
110.21
123.33
137.22
152.01
167.65
183.38
197.85
209.60
217.90
223.08
226.00
227.14
226.11
221.98
214.25
203.60
191.68
179.82
167.73
153.06
132.31
102.77
64.22
19.07
-28.93
-76.63
-122.61
-166.77
-208.81
-247.06
-278.75
-301.58
-315.30
-321.97
-324.42
-323.84
-318.82
-306.72
-286.47
-260.91
-236.79
-221.60
-219.60
-229.15
-243.64
-254.95
-257.50
-250.02
-234.14
-211.76
-183.16
-147.44
-104.95
-59.19
-16.55
16.12
34.86
40.34
37.11
30.93
26.10
24.00
23.74
23.83
23.70
23.91
25.30
27.88
30.59
31.84
30.49
26.53
20.67
13.62
5.68
-2.98
-11.64
-18.45
-21.06
-17.97
-9.80
0.41
8.38
10.76
6.57
-2.53
-13.24
-22.51
-28.45
-30.49
-28.75
-23.54
-15.36
-5.36
4.60
12.43
16.74
17.55
16.23
14.64
14.21
15.38
17.75
20.57
23.20
25.30
26.83
27.91
28.70
29.37
29.89
30.11
29.83
28.94
27.55
26.07
24.82
23.74
22.40
20.07
16.27
11.38
6.55
3.28
2.67
4.66
7.88
10.16
9.36
4.42
-4.02
-13.84
-22.24
-26.98
-27.31
-24.17
-19.47
-15.04
-11.81
-9.67
-8.00
-6.50
-5.45
-5.41
-6.43
-7.61
-7.49
-4.87
0.29
6.64
12.19
15.34
15.58
13.62
10.85
8.61
7.65
8.08
9.56
11.66
13.98
16.06
17.44
17.65
16.50
14.38
12.18
10.85
11.02
12.46
14.08
14.32
12.04
7.06
0.49
-5.80
-10.04
-11.38
-10.07
-7.07
-3.26
0.98
5.63
10.58
15.16
18.17
18.48
15.85
11.32
6.95
4.74
5.56
8.71
12.30
14.40
13.94
11.06
6.74
2.14
-2.05
-5.65
-8.65
-10.86
-11.89
-11.36
-9.42
-6.76
-4.38
-2.93
-2.43
-2.42
-2.43
-2.36
-2.55
-3.72
-6.48
-11.08
-17.21
-23.95
-29.91
-33.58
-33.64
-29.48
-21.56
-11.49
-1.59
5.85
9.48
9.28
6.43
2.73
-0.05
-0.72
1.11
5.08
10.18
15.21
19.07
21.15
21.32
19.86
17.18
13.78
10.17
6.98
4.97
4.70
6.07
8.29
10.09
10.40
9.00
6.68
4.76
4.21
4.91
5.70
5.07
2.16
-2.74
-8.36
-13.20
-16.25
-17.30
-16.69
-14.75
-11.59
-7.16
-1.61
4.29
9.33
12.54
13.74
13.76
13.92
15.00
16.74
17.84
16.95
13.58
8.60
3.72
0.51
-0.59
-0.42
-0.35
-1.27
-2.95
-4.16
-3.57
-0.64
3.98
8.69
11.65
11.66
8.69
3.86
-0.98
-4.14
-4.84
-3.59
-1.91
-1.62
-3.84
-8.51
-14.44
-20.06
-24.18
-26.41
-26.91
-25.93
-23.64
-20.05
-15.34
-10.04
-4.94
-0.71
2.43
4.71
6.54
8.21
9.84
11.52
13.57
16.45
20.46
25.46
30.60
34.71
36.65
35.88
32.64
27.79
22.49
17.69
13.95
11.26
9.30
7.62
5.87
3.77
1.18
-1.83
-5.04
-8.05
-10.37
-11.61
-11.75
-11.18
-10.55
-10.56
-11.67
-13.94
-17.04
-20.35
-23.16
-24.75
-24.60
-22.55
-18.93
-14.36
-9.56
-5.00
-0.85
2.86
6.04
8.39
9.61
9.80
9.53
9.73
11.18
14.00
17.55
20.76
22.62
22.59
20.82
17.81
14.22
10.58
7.33
4.85
3.39
2.95
3.15
3.36
2.94
1.68
-0.09
-1.66
-2.35
-2.06
-1.30
-0.90
-1.45
-2.99
-4.88
-6.36
-6.94
-6.82
-6.79
-7.69
-9.80
-12.64
-15.16
-16.24
-15.28
-12.46
-8.45
-4.09
0.05
3.75
6.99
9.76
11.89
13.07
12.97
11.50
8.94
5.91
3.18
1.38
0.87
1.65
3.41
5.47
7.01
7.31
6.03
3.36
0.05
-2.98
-4.99
-5.69
-5.21
-3.87
-2.08
-0.17
1.51
2.44
2.06
-0.02
-3.59
-7.80
-11.52
-13.97
-15.13
-15.75
-16.84
-19.07
-22.44
-26.42
-30.06
-32.44
-32.87
-31.01
-27.05
-21.73
-16.20
-11.55
-8.50
-7.24
-7.52
-8.89
-10.99
-13.42
-15.70
-17.20
-17.43
-16.39
-14.69
-13.35
-13.31
-15.01
-18.35
-22.93
-28.29
-33.84
-38.78
-42.16
-43.35
-42.62
-41.59
-42.61
-47.68
-57.14
-69.03
-79.61
-84.63
-80.90
-67.39
-45.43
-18.25
10.23
36.42
57.87
73.68
84.43
91.84
98.19
105.50
114.82
125.87
137.00
145.68
149.33
146.11
135.44
118.06
95.67
70.35
44.05
18.33
-5.38
-25.81
-41.94
-53.38
-60.61
-64.81
-67.24
-68.51
-68.21
-65.15
-58.08
-46.61
-31.65
-15.15
0.66
14.27
25.39
34.70
43.04
50.65
56.75
60.00
59.23
54.18
45.75
35.58
25.24
15.57
6.42
-2.87
-12.80
-23.15
-32.86
-40.54
-45.18
-46.70
-45.90
-43.97
-41.60
-38.57
-33.84
-26.28
-15.60
-2.84
9.92
20.46
27.31
30.35
30.59
29.39
27.77
25.97
23.63
20.39
16.26
11.65
7.14
3.16
-0.12
-2.68
-4.57
-5.72
-6.19
-6.20
-6.14
-6.38
-6.96
-7.66
-8.16
-8.41
-8.65
-9.20
-10.15
-11.11
-11.38
-10.47
-8.44
-5.89
-3.57
-1.87
-0.67
0.41
1.61
2.76
3.44
3.39
2.88
2.65
3.44
5.41
8.02
10.24
11.13
10.30
8.05
5.23
2.68
0.88
-0.22
-1.06
-2.00
-3.13
-4.21
-4.90
-4.93
-4.31
-3.18
-1.80
-0.31
1.30
2.95
4.23
4.52
3.31
0.80
-2.08
-4.44
-5.50
-5.17
-3.83
-1.74
1.29
5.84
12.04
18.80
23.06
21.13
10.54
-8.54
-33.20
-59.29
-83.56
-105.23
-122.45
-134.21
-139.35
-136.30
-123.88
-102.28
-73.78
-42.30
-12.24
13.19
32.35
45.45
53.76
58.82
61.74
62.87
62.43
60.68
58.14
55.38
52.85
50.82
49.39
48.36
47.39
46.18
44.61
42.85
41.12
39.67
38.69
38.25
38.42
39.13
40.25
41.52
42.82
44.09
45.38
46.77
48.35
50.23
52.31
54.23
55.33
54.82
52.19
47.41
40.84
33.26
25.45
17.73
9.73
0.49
-11.11
-25.71
-42.44
-60.26
-77.45
-92.40
-104.07
-112.45
-118.32
-122.83
-127.08
-132.07
-138.56
-146.81
-155.85
-163.01
-164.16
-155.21
-134.39
-103.94
-69.95
-39.98
-20.30
-13.20
-16.60
-25.57
-35.15
-41.90
-44.63
-43.39
-38.32
-28.97
-14.55
5.03
28.66
53.60
77.02
96.33
110.18
118.49
122.18
122.77
121.64
119.79
117.68
115.37
112.59
109.02
104.52
99.28
93.85
88.97
85.80
84.78
86.17
89.61
94.10
98.39
101.42
103.03
102.83
101.10
98.21
94.59
90.67
87.04
84.17
81.67
77.71
69.10
52.75
27.56
-4.16
-36.91
-63.96
-80.25
-84.46
-79.19
-69.31
-59.46
-52.14
-47.50
-44.37
-41.77
-39.73
-38.95
-39.81
-41.79
-43.60
-43.74
-41.14
-35.78
-28.60
-21.07
-14.55
-9.57
-5.78
-2.41
1.59
6.99
13.86
21.64
29.44
36.47
42.44
47.69
52.45
57.25
62.53
68.36
74.48
80.53
86.17
91.35
96.38
101.00
105.23
109.11
112.51
115.14
116.51
115.88
112.03
108.28
105.74
105.06
106.56
110.27
116.01
123.45
132.16
141.67
151.61
160.92
168.90
175.08
179.30
181.68
182.71
183.15
184.00
186.45
191.07
198.49
209.07
222.80
239.20
257.27
275.43
291.77
304.16
310.08
307.48
294.94
271.92
238.96
197.63
150.33
100.12
50.21
3.50
-37.60
-71.33
-96.86
-114.23
-124.25
-128.48
-128.88
-127.74
-127.30
-129.59
-135.87
-146.71
-161.96
-180.98
-203.08
-227.74
-254.74
-283.94
-315.00
-347.05
-378.52
-407.38
-431.60
-449.91
-462.24
-469.88
-474.99
-479.89
-486.24
-494.51
-504.25
-514.44
-524.17
-533.24
-542.09
-551.68
-563.19
-578.01
-597.22
-620.82
-646.69
-669.72
-682.24
-675.96
-644.85
-587.65
-508.80
-416.93
-321.87
-231.82
-151.79
-83.89
-28.69
13.49
42.33
58.18
62.91
59.95
53.42
46.86
41.99
38.70
35.66
31.54
25.98
19.94
15.31
13.82
16.26
21.91
29.02
35.42
39.67
41.64
42.70
45.36
52.93
68.58
94.33
129.90
171.72
212.98
245.09
260.32
254.38
228.26
187.71
141.40
97.97
63.52
40.79
29.89
29.83
39.70
59.00
86.91
121.74
160.61
199.52
234.26
261.48
279.70
289.57
293.22
293.19
292.32
293.34
298.29
308.21
322.61
339.06
353.18
358.94
350.17
323.53
280.06
224.34
162.51
99.88
39.57
-17.58
-72.12
-124.14
-170.26
-203.90
-218.37
-209.47
-177.55
-127.09
-65.24
-0.48
55.64
89.12
90.39
59.75
6.19
-60.05
-131.84
-204.72
-275.37
-343.08
-403.47
-450.04
-478.56
-487.98
-480.57
-460.05
-426.35
-378.56
-320.22
-254.28
-176.82
-88.15
7.58
103.19
190.22
261.23
310.57
335.71
338.85
325.68
302.73
276.82
253.12
233.61
216.64
196.97
168.26
126.70
72.49
9.43
-55.19
-112.64
-155.19
-178.13
-181.04
-167.63
-144.17
-118.08
-96.58
-84.50
-83.47
-92.47
-108.78
-129.24
-150.88
-170.58
-185.45
-193.04
-191.66
-180.88
-161.83
-136.70
-108.30
-79.11
-50.73
-24.08
0.13
21.14
38.03
49.82
55.88
56.27
51.92
44.57
36.30
28.92
23.37
19.78
17.54
15.69
13.38
10.18
6.39
2.76
0.26
-0.37
1.41
5.66
12.12
20.27
29.44
38.98
48.19
56.45
63.25
68.37
71.98
74.69
77.38
80.93
86.00
92.73
100.74
109.37
118.00
126.39
134.85
144.10
154.93
167.79
182.45
198.11
213.67
228.20
241.35
253.36
264.94
277.11
291.01
307.65
327.61
350.40
373.80
393.87
405.73
405.16
390.40
362.98
327.21
288.51
251.44
218.44
189.81
164.71
142.38
122.85
106.61
93.94
84.38
76.60
69.02
60.53
50.89
40.78
31.34
23.48
17.80
14.11
11.58
9.11
5.81
1.57
-3.25
-8.20
-12.96
-17.01
-20.03
-21.84
-22.33
-21.62
-19.54
-16.07
-11.55
-6.63
-1.30
4.34
10.05
15.44
19.70
22.71
24.37
24.32
22.40
21.04
22.44
27.72
36.47
46.06
55.55
64.31
71.76
77.94
87.68
104.18
127.49
154.53
178.80
199.14
216.76
233.60
252.06
280.44
323.04
378.50
440.94
500.03
554.49
605.92
654.38
697.51
737.98
772.98
794.63
793.22
757.95
693.76
612.72
527.80
393.82
195.59
-49.06
-295.25
-465.66
-562.65
-605.78
-614.65
-613.29
-613.39
-610.79
-598.62
-571.84
-529.74
-480.69
-428.52
-379.52
-343.89
-331.28
-340.86
-367.41
-403.03
-439.64
-473.92
-499.04
-510.58
-508.52
-495.31
-470.81
-437.06
-399.41
-366.36
-342.74
-329.26
-324.09
-324.58
-327.40
-326.56
-316.84
-296.31
-266.90
-234.82
-206.60
-187.66
-180.90
-185.39
-194.92
-200.19
-192.46
-167.09
-126.67
-80.05
-40.88
-16.36
-8.34
-12.26
-19.31
-20.58
-10.42
12.15
44.21
82.06
120.59
154.31
178.00
186.78
177.78
151.97
114.52
73.35
36.22
7.66
-12.66
-27.87
-40.43
-49.16
-49.14
-34.72
-4.01
38.62
83.47
119.29
138.86
141.76
133.86
123.65
117.50
116.97
119.47
121.13
119.41
113.57
103.67
89.08
69.07
44.67
20.44
3.36
-0.40
10.22
29.43
46.74
52.24
41.69
18.28
-9.71
-33.85
-49.77
-58.03
-62.06
-64.80
-66.66
-65.94
-60.95
-51.73
-40.63
-31.27
-26.64
-27.44
-32.02
-37.15
-39.64
-37.77
-31.98
-24.39
-17.78
-14.24
-14.27
-16.80
-19.83
-21.37
-20.38
-17.10
-12.69
-8.75
-6.37
-5.80
-6.44
-7.29
-7.49
-6.68
-5.23
-3.69
-2.61
-2.16
-1.99
-1.46
0.03
2.86
7.10
12.46
18.82
26.23
34.83
44.63
55.17
65.16
72.75
75.94
73.11
63.73
48.52
29.25
8.13
-12.66
-31.72
-48.45
-62.88
-75.25
-85.95
-95.51
-104.57
-112.60
-118.14
-118.44
-110.44
-92.32
-65.13
-33.08
-2.32
21.48
35.52
40.29
38.88
34.95
30.97
27.56
24.19
20.41
16.47
13.44
12.11
12.55
13.92
14.89
14.29
11.74
7.82
3.52
-0.32
-3.68
-7.29
-12.31
-19.89
-30.55
-43.83
-58.22
-71.85
-82.84
-89.99
-92.62
-90.54
-83.80
-72.34
-56.34
-35.84
-11.88
14.13
40.07
63.81
83.53
98.29
108.39
113.59
114.11
110.12
102.12
91.05
78.39
65.45
53.08
41.45
30.58
21.45
16.15
17.40
26.83
43.58
63.79
81.90
92.84
92.87
83.35
67.54
49.11
30.82
14.01
-1.02
-14.31
-25.73
-35.38
-43.69
-51.81
-60.78
-71.06
-81.95
-91.61
-97.77
-98.56
-93.14
-81.72
-65.51
-46.24
-25.36
-4.27
16.16
35.47
53.49
70.35
86.03
99.51
108.25
108.54
97.27
73.75
41.08
5.47
-25.75
-47.33
-57.67
-58.86
-55.05
-49.93
-45.27
-41.06
-36.74
-32.30
-28.63
-27.03
-27.91
-30.38
-32.65
-32.97
-30.27
-24.90
-18.12
-11.30
-5.35
0.07
6.07
14.13
25.18
39.14
54.38
68.15
77.05
77.76
68.71
50.82
28.11
6.58
-7.49
-11.00
-4.88
6.43
16.86
21.21
16.63
2.58
-19.36
-46.32
-74.41
-98.93
-114.60
-118.45
-109.94
-91.58
-68.03
-44.12
-23.37
-7.32
3.86
10.75
13.84
13.85
11.87
9.45
8.07
8.60
11.17
14.99
19.06
22.52
25.47
28.86
34.16
42.52
54.16
67.91
81.42
91.87
96.85
95.30
87.78
76.05
62.22
47.93
33.73
19.23
3.60
-13.54
-31.28
-47.51
-59.65
-65.93
-66.28
-62.21
-56.69
-52.73
-51.97
-54.63
-59.64
-65.39
-70.06
-71.40
-66.57
-53.02
-29.75
0.96
32.97
57.66
67.48
59.22
35.60
4.03
-26.99
-51.59
-68.42
-79.37
-86.42
-88.98
-83.78
-67.38
-39.60
-5.13
27.62
49.97
57.07
49.99
34.69
19.26
10.32
10.37
17.73
27.07
33.22
33.01
26.88
18.78
14.28
18.25
32.39
54.15
78.11
98.88
112.81
119.16
119.23
114.72
106.33
93.47
75.31
52.50
27.30
3.03
-17.06
-31.06
-39.01
-42.52
-43.88
-45.11
-46.62
-47.90
-48.07
-46.54
-43.63
-40.48
-38.46
-38.46
-40.13
-42.23
-43.23
-42.19
-39.30
-35.93
-33.97
-34.72
-38.27
-43.22
-47.30
-48.66
-46.72
-42.56
-38.41
-36.35
-37.74
-42.94
-51.67
-63.25
-76.01
-87.13
-92.25
-87.11
-70.56
-45.23
-18.52
0.51
5.75
-2.45
-17.24
-28.29
-27.00
-10.51
17.87
50.79
80.96
103.80
117.94
123.66
121.04
109.20
86.60
52.92
11.32
-31.73
-67.61
-88.13
-89.31
-73.28
-47.73
-23.20
-8.41
-7.25
-17.64
-33.82
-48.67
-57.19
-57.50
-49.99
-35.75
-14.87
12.91
46.66
82.66
114.42
134.96
139.51
128.02
105.30
79.04
56.43
41.38
33.62
30.60
29.19
27.80
26.35
25.33
24.52
22.63
17.83
9.06
-3.03
-16.61
-29.30
-39.04
-45.06
-47.73
-48.31
-48.61
-50.37
-54.42
-60.37
-65.92
-67.40
-61.32
-46.33
-24.46
-0.85
18.34
28.79
29.83
24.41
17.44
13.04
12.78
15.65
19.38
22.12
23.55
24.59
26.24
28.70
31.07
31.97
30.29
25.85
19.57
13.02
7.85
5.11
4.89
6.37
7.97
8.71
8.12
6.14
3.09
-0.65
-4.92
-9.91
-15.95
-23.27
-31.65
-40.58
-49.38
-57.38
-64.07
-69.39
-73.77
-77.89
-82.48
-87.83
-94.08
-101.10
-108.54
-116.32
-123.76
-130.30
-135.53
-139.13
-140.47
-139.09
-134.72
-127.15
-116.25
-101.81
-83.73
-62.18
-37.87
-11.50
15.35
40.60
62.00
77.72
86.87
89.54
86.75
79.89
71.06
61.68
52.45
43.71
35.84
30.01
28.28
33.74
45.05
62.67
86.36
115.05
147.13
181.04
215.77
250.91
286.59
323.17
361.92
403.80
448.99
495.86
540.08
574.81
592.08
585.57
553.08
498.33
429.23
355.12
283.65
218.83
161.18
109.17
61.12
16.29
-24.87
-61.93
-94.99
-124.45
-150.43
-172.09
-187.67
-194.86
-191.93
-178.31
-155.27
-125.64
-92.87
-60.21
-29.83
-2.58
21.96
44.75
66.82
88.62
109.93
130.06
148.19
163.67
176.14
185.65
192.30
196.07
196.67
193.56
186.24
174.44
158.41
138.94
117.19
94.37
71.41
48.68
26.02
2.92
-21.12
-46.25
-72.05
-97.69
-122.14
-144.61
-164.86
-183.33
-200.86
-218.34
-236.32
-254.63
-272.65
-289.66
-305.24
-319.51
-333.23
-347.47
-363.54
-383.00
-407.61
-438.78
-476.26
-516.87
-554.54
-581.98
-593.58
-588.01
-568.55
-540.86
-509.85
-477.36
-442.16
-402.37
-357.99
-312.26
-270.77
-238.93
-219.71
-212.99
-216.37
-226.44
-239.78
-252.94
-262.45
-265.26
-259.81
-246.76
-229.07
-210.92
-195.87
-185.11
-176.89
-167.31
-152.61
-131.47
-106.58
-84.26
-72.21
-76.27
-97.96
-133.32
-173.72
-208.25
-226.65
-221.93
-191.93
-139.52
-71.32
4.19
78.68
145.58
200.73
242.40
270.82
287.66
295.94
300.08
305.27
315.91
334.39
360.10
390.00
420.04
446.78
468.76
486.73
502.55
516.88
528.17
532.37
524.42
499.94
457.21
398.19
328.57
256.46
190.12
137.04
102.89
90.82
99.77
123.88
151.12
167.90
166.51
148.71
124.09
103.77
95.02
98.70
110.47
124.46
136.83
148.74
160.73
172.30
180.84
182.32
172.76
150.59
117.37
77.63
37.07
-0.64
-34.01
-65.00
-95.10
-126.29
-159.44
-193.71
-227.17
-257.65
-284.69
-308.09
-328.67
-348.01
-367.85
-389.15
-411.34
-432.21
-447.41
-451.10
-435.25
-393.42
-324.01
-232.04
-128.09
-24.96
65.76
138.25
184.58
202.48
196.57
175.02
144.87
110.34
74.42
40.11
8.92
-18.10
-38.72
-51.75
-57.89
-58.79
-56.38
-50.51
-41.14
-28.67
-14.20
2.09
19.62
37.12
53.40
68.00
82.07
97.96
118.57
140.79
161.39
177.33
187.07
190.99
190.12
185.23
176.77
164.93
150.06
133.65
117.31
102.20
88.73
76.70
65.45
54.72
44.23
33.82
24.05
15.65
9.12
4.51
1.49
-0.60
-1.84
-2.20
-1.59
0.34
4.16
9.83
16.70
25.52
33.55
39.13
41.28
39.68
34.51
26.82
17.51
7.24
-3.59
-14.94
-26.08
-36.12
-43.97
-48.97
-50.05
-47.34
-41.94
-35.54
-29.97
-25.92
-22.96
-19.76
-15.27
-7.05
5.32
20.79
37.45
53.01
66.33
77.78
89.34
98.11
106.67
116.96
130.98
149.84
172.59
195.59
212.98
218.54
206.12
178.66
140.85
99.60
61.11
28.88
2.91
-18.89
-39.39
-63.46
-89.40
-118.75
-153.38
-195.13
-243.66
-295.66
-344.63
-366.49
-373.85
-358.42
-319.52
-260.97
-190.45
-116.87
-48.90
7.45
49.11
76.03
98.49
122.50
151.97
185.70
217.18
236.45
234.73
205.85
149.94
78.31
2.78
-65.36
-122.73
-168.83
-205.81
-236.98
-266.98
-296.25
-317.36
-322.71
-306.93
-269.48
-214.54
-149.29
-65.29
28.82
118.22
189.77
233.82
247.09
232.99
199.99
159.39
122.55
95.00
78.93
73.36
73.51
74.53
74.86
74.54
73.84
73.37
71.88
69.70
69.09
70.44
73.15
79.30
88.19
96.75
102.61
103.36
99.14
91.85
80.94
65.67
50.75
37.23
22.46
4.43
-18.89
-48.47
-85.37
-129.36
-180.88
-232.77
-281.70
-328.09
-371.01
-408.23
-436.53
-428.77
-374.03
-314.03
-261.30
-206.44
-149.83
-94.26
-43.60
-1.38
31.08
52.09
64.39
80.56
108.43
147.59
192.83
236.14
270.01
290.28
293.94
282.43
265.42
249.84
239.05
234.78
240.20
260.45
300.49
359.11
429.28
502.48
565.82
606.81
614.85
588.22
534.37
465.71
391.88
317.90
246.64
178.55
113.75
46.52
-26.05
-101.94
-176.21
-245.89
-311.09
-372.76
-431.72
-487.52
-547.61
-615.96
-689.16
-758.80
-817.75
-863.62
-897.81
-923.59
-887.55
-767.00
-583.22
-386.42
-217.32
-90.37
-1.58
59.67
103.82
138.91
160.74
165.91
157.12
142.49
129.90
123.50
123.94
130.17
140.54
146.12
140.75
124.71
103.82
84.52
70.68
63.37
61.96
64.82
65.60
59.79
47.00
30.14
12.32
-4.59
-18.94
-28.10
-28.50
-19.07
-0.47
24.62
51.38
73.74
86.50
87.73
79.18
64.91
48.21
31.08
14.37
-1.34
-15.18
-26.21
-32.35
-32.31
-26.00
-14.52
0.27
16.21
31.49
44.85
55.71
64.26
70.96
76.43
81.20
85.35
88.50
89.95
89.09
85.92
81.39
77.12
74.75
74.88
76.79
78.79
79.42
78.37
76.51
74.85
72.82
67.90
56.95
38.80
16.30
-4.43
-17.11
-19.17
-13.66
-7.74
-8.31
-17.81
-32.62
-45.49
-50.58
-47.30
-40.53
-37.33
-42.08
-53.60
-65.92
-72.26
-68.54
-56.71
-43.21
-35.14
-36.08
-44.19
-53.52
-57.75
-53.71
-42.75
-29.51
-18.48
-11.51
-7.31
-3.00
3.55
12.33
21.26
27.96
31.14
31.64
31.78
34.02
39.54
47.63
56.05
62.01
63.65
60.87
55.30
49.44
45.24
43.10
41.49
37.85
30.29
19.05
6.81
-2.64
-6.72
-5.65
-2.24
-0.02
-0.93
-4.39
-8.04
-9.88
-9.78
-9.22
-9.94
-12.41
-15.71
-18.54
-20.32
-21.48
-22.92
-25.10
-27.41
-28.76
-28.29
-25.83
-21.95
-17.28
-12.44
-8.10
-4.94
-3.25
-2.54
-1.33
2.01
8.26
16.51
24.28
28.75
28.34
23.54
16.37
9.48
4.74
2.77
3.12
4.92
7.32
9.62
11.05
10.72
7.86
2.28
-5.30
-13.27
-19.55
-22.32
-20.72
-15.38
-8.20
-1.88
1.37
0.70
-2.96
-7.47
-10.71
-11.81
-11.37
-10.85
-11.34
-12.87
-14.51
-15.21
-14.76
-13.78
-13.40
-14.22
-15.83
-17.08
-16.72
-14.30
-10.38
-6.20
-3.07
-1.75
-1.97
-2.62
-2.01
1.53
8.49
17.56
25.94
30.50
29.84
25.28
19.96
17.20
18.66
23.41
28.83
32.21
32.19
29.16
24.54
19.65
14.95
10.10
4.69
-1.23
-6.85
-11.31
-14.07
-15.06
-14.69
-13.62
-12.59
-12.37
-13.26
-14.72
-15.85
-15.91
-15.24
-15.28
-17.70
-23.20
-30.42
-36.10
-36.91
-31.31
-20.80
-9.27
-1.01
1.54
-1.04
-5.88
-9.61
-10.02
-6.75
-0.92
5.97
12.56
18.10
22.22
24.68
25.43
24.63
22.88
20.97
19.55
18.83
18.47
17.72
16.06
13.49
10.70
8.47
6.93
5.42
2.89
-1.17
-5.96
-9.78
-10.96
-8.98
-5.02
-1.13
0.75
-0.00
-2.44
-4.70
-5.25
-3.70
-0.96
1.33
1.62
-0.99
-6.30
-13.06
-19.29
-23.12
-23.56
-20.88
-16.35
-11.53
-7.47
-4.45
-2.11
-0.02
1.84
3.15
3.72
4.11
5.71
10.05
17.74
27.69
37.21
43.41
44.59
41.20
35.68
31.07
29.28
30.28
32.41
33.41
31.88
27.50
20.86
12.89
4.57
-2.80
-7.35
-7.11
-1.37
8.37
18.19
23.19
19.93
8.74
-5.75
-16.35
-16.32
-2.84
21.31
48.20
67.84
71.22
52.99
12.60
-45.16
-110.03
-167.68
-202.84
-204.32
-168.82
-104.34
-28.41
37.30
75.29
80.34
61.30
36.54
25.21
40.16
81.73
138.96
193.71
226.85
226.23
189.22
122.02
35.65
-56.43
-140.75
-199.91
-220.09
-200.20
-148.73
-77.74
2.76
83.07
161.71
234.37
296.06
342.18
367.58
372.41
355.72
319.76
261.96
185.28
94.52
-1.89
-95.60
-190.85
-291.86
-398.84
-508.46
-617.82
-712.54
-785.55
-833.32
-835.76
-785.36
-685.25
-550.45
-401.51
-256.95
-127.79
-20.97
60.20
119.98
156.76
169.71
160.02
131.56
89.63
40.87
-12.14
-63.72
-106.69
-137.64
-154.10
-156.11
-146.54
-130.25
-111.92
-95.52
-82.01
-70.60
-62.48
-58.51
-59.14
-63.56
-69.47
-73.67
-73.67
-68.06
-57.27
-44.43
-32.78
-24.38
-19.41
-16.47
-13.37
-8.38
-0.59
9.70
20.79
30.91
39.10
45.55
51.34
57.87
66.19
76.60
88.60
101.12
113.20
124.44
135.11
145.93
157.44
169.76
182.31
194.13
204.23
212.11
218.05
222.84
227.71
234.00
243.07
255.81
272.14
290.38
307.13
318.27
320.51
312.82
297.17
277.47
257.66
239.80
223.73
208.14
192.25
176.64
162.83
152.19
144.93
140.15
136.65
133.78
131.15
127.80
121.63
110.00
91.06
65.32
36.13
8.14
-14.77
-31.17
-42.02
-49.10
-53.22
-53.52
-48.62
-38.23
-24.01
-9.19
3.09
11.16
15.34
17.01
17.10
15.20
9.95
0.47
-12.42
-25.93
-36.42
-41.17
-39.83
-34.35
-28.08
-24.32
-25.28
-31.57
-42.23
-55.10
-67.19
-75.60
-78.49
-75.93
-69.66
-62.34
-56.11
-51.61
-47.98
-43.74
-37.96
-30.91
-23.73
-17.47
-12.36
-7.71
-2.64
2.86
7.56
9.51
7.34
1.00
-8.16
-18.25
-27.75
-36.03
-42.98
-48.16
-50.75
-49.65
-44.35
-35.65
-25.76
-17.32
-12.31
-11.18
-13.01
-16.44
-20.60
-25.12
-29.72
-33.55
-35.10
-33.02
-26.94
-17.86
-7.68
1.64
8.84
13.71
16.60
18.02
18.32
17.61
15.87
13.17
9.70
5.67
1.28
-3.22
-7.39
-10.67
-12.69
-13.37
-13.08
-12.53
-12.47
-13.44
-15.63
-18.88
-22.80
-26.84
-30.66
-34.33
-38.12
-42.32
-46.91
-51.54
-55.85
-59.43
-61.79
-61.78
-57.82
-48.54
-33.71
-14.84
5.14
23.00
36.58
45.34
50.19
52.28
52.08
49.44
43.99
36.11
27.32
19.65
14.50
11.92
10.69
9.28
6.83
3.62
0.60
-1.51
-2.88
-4.24
-6.38
-9.41
-12.72
-15.46
-17.32
-18.71
-20.47
-23.30
-27.23
-31.82
-36.76
-42.08
-47.71
-52.77
-55.30
-53.11
-45.09
-32.06
-16.82
-2.92
6.94
11.64
11.57
8.02
2.51
-3.54
-8.93
-12.81
-14.84
-15.08
-13.91
-11.57
-7.97
-2.83
3.79
11.20
18.11
23.34
26.30
26.94
25.50
22.09
16.74
9.66
1.50
-6.59
-13.33
-17.97
-20.54
-21.49
-21.35
-20.56
-19.61
-19.21
-20.07
-22.27
-24.74
-25.55
-22.86
-16.14
-6.77
2.71
10.05
14.46
16.98
19.47
23.29
28.24
32.66
34.57
32.86
28.00
21.70
15.96
12.06
10.25
9.88
10.09
10.39
10.85
11.95
13.92
16.44
18.49
18.88
16.97
13.14
8.59
4.58
1.77
-0.08
-1.74
-3.96
-6.97
-10.52
-14.45
-18.75
-23.47
-27.93
-30.72
-30.03
-24.67
-14.93
-2.62
9.65
19.60
26.18
29.76
31.39
32.08
32.40
32.49
32.41
32.31
32.38
32.60
32.69
32.13
30.48
27.67
24.00
20.05
16.49
13.84
12.30
11.65
11.41
10.99
9.80
7.46
4.02
-0.24
-4.75
-8.92
-12.35
-15.04
-17.30
-19.67
-22.62
-26.11
-29.63
-32.40
-33.71
-33.30
-31.22
-27.63
-22.67
-16.38
-8.93
-0.74
7.41
14.49
19.43
21.60
20.99
18.00
13.31
7.65
1.67
-3.92
-8.36
-11.12
-12.03
-11.44
-10.27
-9.47
-9.55
-10.29
-10.81
-10.15
-7.91
-4.57
-1.33
0.50
0.20
-2.15
-5.95
-10.45
-15.03
-19.39
-23.49
-27.43
-31.25
-34.71
-37.13
-37.63
-35.17
-29.18
-20.01
-8.92
2.22
11.61
18.05
21.18
21.23
18.66
13.88
7.20
-0.92
-9.80
-18.44
-25.86
-31.37
-34.76
-36.29
-36.49
-35.83
-34.36
-31.90
-28.17
-23.22
-17.58
-12.13
-7.85
-5.52
-5.30
-6.71
-8.97
-11.31
-13.26
-14.80
-16.22
-17.86
-19.91
-22.35
-24.85
-26.70
-26.92
-24.35
-18.08
-7.90
5.32
19.82
33.42
44.29
51.57
55.50
57.02
57.12
56.29
54.37
50.90
45.66
38.93
31.35
23.67
16.27
9.18
2.31
-4.46
-11.03
-17.01
-21.79
-24.78
-25.47
-23.77
-20.00
-14.87
-9.24
-4.02
-0.06
2.22
2.93
2.77
2.41
2.24
1.93
0.81
-1.68
-5.25
-8.44
-8.91
-4.43
5.93
21.20
38.96
56.43
71.66
84.13
94.63
104.70
115.70
128.36
142.60
157.81
172.99
186.93
198.44
206.93
212.75
217.34
222.71
230.84
243.10
259.73
279.12
297.44
309.34
309.35
293.49
260.46
212.23
153.27
89.17
24.52
-38.39
-99.18
-158.00
-214.39
-267.18
-315.09
-357.30
-391.01
-410.87
-412.54
-395.94
-365.34
-326.36
-283.41
-239.28
-195.85
-154.67
-117.26
-85.41
-60.17
-41.22
-26.87
-14.98
-3.53
8.71
22.17
36.88
52.05
67.12
82.12
97.62
114.18
131.83
150.57
168.20
182.25
190.11
189.80
180.53
162.93
138.93
111.53
83.52
57.74
36.93
23.03
17.35
20.42
32.01
51.22
76.43
104.44
131.72
154.80
170.57
176.73
171.96
155.83
128.27
94.32
57.62
21.47
-11.39
-39.09
-60.35
-74.50
-81.19
-80.31
-72.14
-58.55
-42.23
-26.55
-15.10
-10.77
-15.44
-29.47
-52.13
-82.00
-118.44
-161.32
-210.97
-267.85
-332.37
-404.87
-485.26
-571.78
-659.73
-741.23
-805.55
-841.79
-842.10
-804.80
-735.33
-644.16
-542.96
-441.00
-344.12
-254.61
-173.04
-99.66
-35.57
17.65
58.81
88.32
108.52
122.17
132.76
143.93
159.19
181.05
210.81
247.89
290.66
337.10
383.97
426.00
452.82
455.03
429.47
381.16
317.18
244.02
167.18
90.71
17.87
-47.86
-100.53
-134.85
-146.68
-137.74
-114.71
-80.23
-44.97
-19.15
-6.82
-2.57
4.04
25.94
69.96
135.24
214.42
295.65
367.34
420.49
452.11
443.59
393.48
310.33
207.81
99.15
-6.27
-99.81
-182.05
-251.24
-305.10
-339.12
-352.34
-346.86
-326.34
-290.17
-235.48
-165.48
-87.19
-10.91
56.55
110.38
148.39
170.73
178.99
175.56
162.85
144.65
124.15
105.50
90.72
79.83
71.75
64.93
57.88
49.31
39.58
29.40
20.96
15.75
14.04
15.35
18.70
22.69
25.59
28.74
30.02
28.85
25.25
19.11
10.31
-1.04
-14.67
-30.18
-46.79
-63.94
-80.65
-95.71
-108.44
-118.60
-126.20
-131.53
-135.11
-137.64
-140.21
-143.44
-147.08
-150.70
-153.62
-154.86
-153.36
-148.11
-138.26
-122.91
-105.73
-87.87
-69.63
-50.59
-29.84
-6.48
19.82
48.63
78.63
108.25
136.87
164.13
190.26
215.99
242.32
270.45
301.40
335.40
371.15
405.78
434.30
451.00
451.38
434.02
401.20
358.12
310.90
264.67
222.77
186.20
154.76
127.88
105.33
87.00
72.40
60.39
49.42
38.19
26.04
13.23
0.73
-10.33
-19.24
-26.14
-32.02
-38.00
-44.69
-51.89
-58.55
-63.60
-66.48
-67.49
-67.70
-68.22
-69.85
-72.84
-77.01
-81.70
-85.83
-87.94
-86.42
-80.21
-69.57
-56.31
-43.45
-33.87
-29.10
-28.71
-30.69
-32.69
-33.29
-32.47
-31.19
-30.48
-30.61
-30.80
-29.94
-27.36
-23.29
-19.03
-16.20
-16.10
-19.09
-24.38
-30.54
-36.18
-40.54
-43.57
-45.82
-47.93
-50.33
-53.17
-56.41
-60.02
-64.02
-68.35
-72.75
-76.88
-80.54
-83.84
-87.11
-90.84
-95.35
-100.62
-106.25
-111.64
-116.17
-119.34
-120.81
-120.50
-118.47
-115.00
-110.46
-105.20
-99.43
-93.33
-86.97
-80.44
-73.93
-67.53
-61.32
-55.09
-48.77
-42.42
-36.39
-31.17
-27.17
-24.65
-23.46
-23.29
-23.69
-24.29
-24.76
-24.85
-24.33
-23.15
-21.49
-19.75
-18.45
-17.94
-18.16
-18.84
-19.48
-19.69
-19.35
-18.47
-17.08
-15.24
-12.92
-10.17
-7.11
-3.88
-0.49
3.06
6.84
10.83
14.73
17.95
19.91
20.21
18.93
16.52
13.63
10.94
8.85
7.48
6.62
5.97
5.22
4.22
2.93
1.37
-0.32
-1.91
-3.08
-3.49
-3.01
-1.84
-0.48
0.48
0.54
-0.41
-2.09
-3.92
-5.21
-5.62
-5.21
-4.30
-3.29
-2.46
-1.72
-0.76
0.70
2.73
5.05
7.21
8.87
10.03
11.03
12.34
14.18
16.35
18.27
19.40
19.36
18.19
16.29
14.05
11.76
9.58
7.57
5.83
4.54
3.75
3.24
2.64
1.39
-0.81
-4.05
-7.90
-11.55
-14.03
-14.68
-13.39
-10.65
-7.44
-4.67
-2.84
-1.78
-0.85
0.76
3.55
7.34
11.54
15.31
18.03
19.47
19.73
19.15
17.99
16.47
14.67
12.75
10.80
8.97
7.36
6.02
5.11
4.67
4.83
5.47
6.30
6.82
6.54
5.17
2.74
-0.34
-3.51
-6.17
-7.99
-8.73
-8.37
-6.97
-4.56
-1.37
2.23
5.78
8.88
11.21
12.77
13.69
14.12
14.24
14.08
13.68
13.12
12.50
11.89
11.36
10.86
10.32
9.77
9.28
8.91
8.78
8.91
9.26
9.62
9.72
9.40
8.64
7.48
6.01
4.34
2.62
0.97
-0.68
-2.51
-4.52
-6.34
-7.45
-7.42
-6.09
-3.64
-0.40
2.84
5.60
7.99
10.65
14.17
18.61
23.60
28.63
33.53
37.27
39.04
38.91
37.91
37.17
37.24
38.12
39.75
42.15
43.07
40.44
34.09
26.28
19.73
16.07
15.50
17.51
21.83
24.37
21.06
10.80
-3.80
-19.20
-33.39
-45.99
-57.47
-67.90
-83.13
-110.05
-152.28
-208.55
-275.11
-348.18
-424.21
-499.30
-537.47
-511.91
-422.40
-296.43
-166.22
-50.49
45.80
124.39
188.36
241.06
282.39
309.04
320.03
318.97
310.23
296.39
277.88
246.49
202.54
146.50
80.04
8.18
-59.84
-113.57
-144.32
-147.80
-125.91
-84.90
-37.96
1.30
23.82
31.97
31.66
29.30
29.45
34.34
45.57
61.71
80.32
100.00
120.56
141.73
163.33
185.83
207.67
230.18
255.11
284.18
318.37
356.38
392.91
419.80
428.74
414.51
378.60
328.24
273.31
223.01
182.74
152.84
130.23
111.23
93.21
75.73
58.94
42.26
23.74
0.78
-28.98
-66.46
-110.37
-157.70
-204.47
-247.09
-282.89
-310.20
-328.17
-336.82
-336.89
-330.20
-319.16
-305.51
-289.18
-267.90
-237.98
-196.59
-143.93
-83.57
-21.69
34.90
80.77
112.69
128.40
126.12
104.23
62.43
3.56
-65.61
-135.50
-196.09
-239.64
-262.95
-267.32
-257.42
-239.26
-218.81
-201.33
-191.39
-192.55
-206.46
-231.69
-262.80
-291.14
-307.31
-304.76
-282.48
-245.61
-203.28
-164.95
-137.15
-121.82
-117.15
-119.59
-125.79
-133.36
-140.47
-145.12
-144.82
-137.19
-120.79
-95.82
-64.12
-28.56
8.33
45.50
83.59
124.14
168.10
214.60
260.66
302.29
336.19
360.97
377.12
385.90
388.10
383.39
370.82
349.72
320.40
284.12
242.33
195.82
144.81
89.74
31.81
-26.54
-82.43
-133.91
-180.80
-224.59
-267.07
-308.54
-346.64
-376.72
-393.55
-393.48
-375.83
-343.21
-300.35
-252.38
-203.48
-156.38
-112.71
-73.87
-41.35
-16.64
-0.66
6.52
5.84
-1.10
-12.44
-26.39
-41.26
-55.63
-68.08
-76.88
-80.16
-76.02
-62.98
-40.57
-9.35
29.36
74.19
124.20
178.88
237.45
297.85
355.81
405.32
440.56
458.22
458.92
446.97
428.41
408.09
387.80
365.93
339.32
306.06
267.16
225.81
185.13
145.70
105.29
60.94
11.94
-38.81
-86.11
-125.70
-156.63
-180.74
-199.57
-210.72
-207.28
-181.56
-131.22
-63.39
6.15
59.67
85.72
84.22
66.07
47.48
42.40
57.31
89.81
130.87
169.13
194.88
202.53
191.25
164.01
125.26
79.14
28.10
-27.01
-85.52
-145.29
-201.93
-249.48
-282.47
-298.17
-297.55
-284.80
-265.61
-245.22
-227.52
-215.20
-210.23
-214.07
-227.08
-247.47
-270.85
-290.83
-300.78
-296.08
-275.67
-242.07
-200.24
-155.65
-112.60
-73.53
-39.07
-8.59
19.29
46.32
74.41
105.22
139.71
177.56
216.92
254.71
287.69
313.58
331.82
343.55
350.66
354.82
356.69
356.19
353.26
348.78
344.71
343.42
346.38
353.13
361.13
366.75
366.71
359.53
346.09
329.28
312.82
300.12
293.05
291.50
293.57
296.12
295.58
288.90
274.28
251.79
223.35
192.24
162.04
135.41
113.46
95.63
80.48
66.63
53.35
40.61
28.53
16.99
5.49
-6.40
-18.55
-29.85
-38.61
-43.37
-43.87
-41.43
-38.57
-38.00
-41.63
-49.79
-61.18
-73.68
-85.29
-95.15
-103.90
-113.20
-124.73
-139.14
-155.23
-170.25
-181.12
-185.66
-183.66
-177.48
-171.42
-170.80
-180.82
-205.45
-246.15
-300.73
-362.53
-421.27
-466.27
-490.22
-492.64
-480.50
-465.50
-458.68
-465.18
-481.58
-497.39
-499.89
-479.64
-433.90
-366.57
-285.54
-199.56
-116.39
-42.36
17.41
59.70
84.73
96.87
104.34
116.85
142.09
182.92
237.03
298.89
362.88
425.48
484.75
538.69
583.52
613.83
624.54
613.89
584.89
544.38
500.60
459.99
425.43
396.41
370.85
347.04
324.83
305.25
289.30
276.71
265.56
253.01
236.65
215.43
190.12
162.79
135.76
110.66
87.85
66.49
45.09
22.41
-2.07
-27.80
-53.53
-77.88
-99.85
-119.06
-135.70
-150.29
-163.18
-174.31
-183.16
-188.88
-190.72
-188.17
-181.06
-169.55
-153.95
-134.64
-113.08
-90.41
-66.98
-42.62
-17.40
7.83
31.59
52.19
68.12
77.13
77.83
70.25
55.73
36.18
13.37
-11.20
-36.07
-59.77
-83.62
-108.22
-132.25
-152.71
-166.89
-173.78
-174.07
-169.34
-161.54
-159.97
-171.24
-195.40
-226.37
-257.09
-283.52
-304.67
-321.03
-333.42
-357.68
-404.41
-471.45
-544.99
-610.31
-659.87
-693.24
-713.75
-725.56
-756.68
-826.14
-931.98
-1052.92
-1165.43
-1256.75
-1325.08
-1374.27
-1409.92
-1468.52
-1574.82
-1726.30
-1895.41
-2051.72
-2178.88
-2274.31
-2342.29
-2189.61
-1722.01
-997.09
-194.70
520.03
1076.29
1477.87
1758.68
1955.17
2095.36
2166.63
2161.18
2093.14
1994.96
1898.59
1820.33
1761.89
1717.70
1678.89
1614.28
1503.60
1348.23
1170.80
998.45
847.93
724.79
628.05
550.33
470.16
373.74
261.67
146.48
40.92
-49.95
-127.80
-197.19
-268.43
-354.50
-459.68
-577.80
-696.04
-802.00
-887.24
-946.21
-974.54
-976.89
-958.89
-923.16
-870.58
-803.45
-727.71
-651.91
-584.50
-482.96
-337.08
-165.46
-1.21
132.32
230.38
299.18
346.68
378.51
397.85
399.16
381.35
349.84
313.33
279.24
251.17
229.68
214.13
203.72
191.79
173.14
149.27
123.69
99.40
77.47
57.73
39.89
23.85
5.85
-15.96
-40.70
-66.39
-91.17
-114.32
-135.91
-156.09
-174.82
-193.63
-212.94
-231.46
-248.32
-262.26
-272.31
-277.66
-277.34
-270.26
-256.04
-234.31
-204.63
-167.21
-122.78
-72.86
-19.71
34.18
86.23
134.08
175.90
210.46
237.23
256.68
269.99
278.77
284.90
290.10
295.74
302.57
310.70
319.53
328.03
334.93
338.93
339.00
334.39
324.89
310.74
292.53
270.96
246.80
220.60
192.69
163.18
132.02
99.13
64.61
28.78
-7.72
-43.92
-78.65
-110.68
-138.85
-162.20
-180.16
-192.50
-199.37
-201.24
-198.80
-192.89
-184.37
-174.11
-162.88
-151.37
-140.19
-129.91
-120.95
-113.68
-108.36
-105.11
-103.89
-104.56
-106.79
-110.19
-114.30
-118.67
-122.86
-126.53
-129.38
-131.17
-131.77
-131.05
-128.90
-125.23
-119.99
-113.15
-104.72
-94.74
-83.36
-70.76
-57.21
-43.01
-28.49
-13.94
0.37
14.27
27.64
40.49
52.90
65.06
77.20
89.54
102.27
115.47
129.07
142.78
156.13
168.46
178.94
186.73
190.99
191.07
186.45
176.89
162.38
143.16
119.59
92.09
61.12
27.11
-9.47
-48.11
-88.05
-128.28
-167.45
-203.92
-235.85
-261.36
-278.74
-286.70
-284.61
-272.52
-251.32
-222.64
-188.67
-151.93
-114.97
-80.06
-48.93
-22.65
-1.57
14.61
26.61
35.44
42.08
47.41
52.07
56.48
60.88
65.42
70.22
75.36
80.89
86.76
92.79
98.77
104.54
110.06
115.49
121.21
128.09
136.84
147.58
159.83
172.75
185.63
198.18
210.65
223.63
238.39
255.85
276.23
298.87
322.79
347.07
371.32
395.66
420.46
447.46
478.08
513.10
552.39
594.98
638.96
681.35
718.20
745.05
761.96
769.95
770.15
762.55
746.21
720.15
684.35
640.31
590.76
547.06
518.97
510.98
520.78
541.62
566.38
590.21
610.87
626.64
648.49
683.99
733.44
788.95
838.80
873.41
888.43
884.25
862.29
841.02
834.53
847.27
872.86
899.52
917.74
924.04
920.58
823.55
592.11
233.91
-190.90
-602.77
-943.77
-1192.67
-1355.80
-1440.03
-1477.03
-1474.63
-1435.79
-1366.11
-1277.79
-1186.33
-1104.47
-1040.66
-996.73
-973.17
-955.21
-931.19
-896.73
-855.36
-814.49
-779.66
-751.83
-728.44
-707.65
-679.39
-637.28
-580.64
-514.46
-446.22
-382.11
-325.50
-278.05
-242.80
-219.05
-207.55
-209.88
-226.86
-256.73
-293.98
-330.77
-360.49
-380.96
-391.67
-393.58
-386.65
-369.59
-340.63
-298.94
-245.79
-185.75
-125.66
-71.41
-25.63
13.14
47.59
79.86
111.20
143.14
176.83
212.26
247.73
279.84
304.30
315.22
308.08
278.53
231.37
180.34
141.51
124.46
126.74
142.19
162.92
182.25
195.91
203.48
205.94
203.24
193.58
174.70
145.39
102.47
43.27
-32.45
-120.88
-216.36
-313.55
-408.47
-497.43
-559.05
-574.48
-536.77
-455.84
-351.15
-241.75
-140.60
-54.55
14.18
66.82
103.98
126.71
137.79
142.51
146.61
154.32
167.17
184.29
203.61
222.09
235.05
239.40
234.96
223.38
206.42
184.84
158.46
126.98
88.56
45.10
-0.13
-42.87
-79.06
-106.02
-123.27
-132.24
-135.11
-134.98
-134.72
-136.57
-141.32
-147.75
-152.56
-150.92
-138.15
-111.86
-74.14
-31.35
8.09
37.20
53.03
57.20
54.19
48.68
43.48
39.09
34.86
30.23
25.68
22.52
21.72
23.22
25.79
27.74
27.62
25.11
20.98
16.62
13.44
12.17
12.61
13.81
14.49
13.73
11.32
7.75
3.94
0.75
-1.35
-2.50
-3.16
-4.08
-5.90
-8.71
-12.24
-16.10
-20.06
-24.13
-28.70
-34.14
-40.98
-49.43
-59.31
-70.08
-80.73
-90.31
-97.81
-102.65
-104.06
-101.72
-95.71
-86.48
-74.94
-62.16
-49.48
-38.17
-29.20
-22.95
-19.20
-17.08
-15.26
-12.33
-6.95
1.68
13.75
28.34
44.50
61.18
77.33
92.14
104.91
115.17
122.52
126.62
127.30
124.66
119.33
112.39
105.11
98.67
93.76
90.41
88.00
86.13
83.66
80.10
75.64
70.86
66.56
63.54
62.50
63.78
66.93
70.17
70.60
64.89
50.78
28.50
1.25
-25.76
-47.28
-60.08
-64.09
-61.71
-56.47
-51.41
-48.05
-46.64
-46.85
-48.31
-50.63
-53.11
-54.49
-53.45
-49.34
-42.59
-34.70
-27.60
-22.72
-20.46
-20.30
-21.22
-22.33
-23.16
-23.51
-23.26
-22.14
-19.88
-16.37
-11.83
-6.70
-1.52
3.31
7.68
11.79
16.24
21.76
28.95
37.73
47.17
55.78
61.59
63.30
60.63
54.29
45.57
35.73
25.63
15.85
7.00
-0.39
-5.94
-9.96
-13.47
-17.67
-23.15
-29.35
-34.69
-37.36
-36.54
-32.92
-28.65
-26.14
-26.79
-30.16
-34.05
-35.59
-32.24
-22.89
-8.07
10.05
28.30
43.34
52.39
54.12
48.85
38.50
25.82
13.72
4.52
-0.50
-1.34
0.83
4.33
7.59
9.75
10.88
11.37
11.53
11.24
10.00
7.45
4.46
2.99
5.43
13.24
25.57
39.42
50.87
56.74
55.99
49.90
41.01
31.72
25.28
22.85
24.14
27.90
32.34
35.30
34.48
27.82
14.39
-4.97
-27.66
-49.54
-66.32
-75.15
-75.69
-70.32
-63.16
-58.42
-58.86
-65.10
-75.40
-86.50
-94.89
-98.03
-95.12
-87.38
-77.64
-69.55
-66.25
-68.92
-75.80
-82.51
-83.73
-75.39
-56.53
-29.42
1.80
33.40
63.89
94.27
126.53
161.33
196.46
226.97
246.89
251.58
239.38
211.84
172.57
125.83
75.21
23.34
-27.96
-77.10
-122.51
-162.69
-196.48
-223.01
-241.09
-248.76
-243.23
-222.12
-185.05
-135.13
-79.03
-25.44
17.46
44.65
55.36
52.79
42.29
29.16
17.01
7.31
-0.10
-6.06
-11.24
-16.01
-20.60
-25.51
-31.65
-39.71
-49.12
-57.30
-59.98
-52.76
-33.58
-4.57
27.84
55.05
69.70
68.67
54.09
31.96
9.33
-8.43
-18.89
-22.26
-19.87
-12.94
-2.30
11.09
25.42
38.10
46.50
49.05
45.75
38.10
28.56
19.81
14.09
12.72
16.08
23.68
34.75
48.38
63.65
79.49
94.10
104.64
107.80
101.28
85.44
63.78
41.07
21.34
6.21
-5.41
-16.07
-27.63
-39.29
-47.63
-48.61
-41.82
-30.81
-21.13
-17.01
-19.40
-26.13
-33.51
-38.45
-39.77
-40.56
-45.00
-55.31
-69.86
-85.11
-98.28
-108.53
-116.03
-120.12
-122.06
-123.82
-128.07
-138.00
-158.30
-194.27
-249.11
-321.17
-384.77
-412.30
-389.32
-325.54
-243.90
-164.37
-96.31
-40.31
7.03
49.73
85.72
110.06
119.46
118.38
115.09
119.02
136.65
168.54
209.83
248.25
270.48
268.26
242.29
200.63
154.80
115.68
84.07
62.69
50.52
44.88
43.51
46.11
53.34
65.85
83.67
106.31
134.62
168.42
206.59
246.44
283.11
309.69
319.26
307.82
276.66
232.99
185.93
143.46
110.10
86.57
71.12
61.72
57.70
59.74
69.34
86.48
109.06
133.32
154.95
170.37
177.48
176.02
166.78
151.00
129.16
100.80
65.40
23.57
-22.16
-67.34
-106.95
-137.59
-158.90
-173.83
-187.40
-204.60
-228.37
-258.97
-294.64
-332.81
-371.03
-406.59
-435.85
-454.30
-458.32
-447.51
-426.26
-402.33
-383.23
-372.00
-365.19
-354.59
-331.90
-293.26
-241.17
-182.52
-124.38
-70.60
-20.64
28.33
78.33
128.34
174.48
211.82
236.69
248.01
247.18
237.32
222.17
205.08
188.35
173.01
158.98
145.62
132.13
118.17
104.37
92.32
83.87
79.78
78.94
78.80
76.68
70.76
60.89
48.66
37.06
28.93
24.80
22.01
16.43
5.10
-12.55
-34.09
-54.83
-69.03
-71.73
-61.09
-38.72
-6.87
34.18
84.80
144.04
207.63
267.78
314.47
336.79
325.92
279.38
203.02
106.79
1.00
-106.06
-208.72
-293.80
-342.00
-343.87
-308.30
-252.46
-191.34
-133.16
-80.64
-33.46
10.15
50.38
85.33
112.96
135.44
153.51
167.10
175.57
178.37
175.32
165.35
146.22
112.57
68.83
20.90
-25.76
-66.83
-99.11
-120.70
-132.05
-136.03
-136.20
-134.42
-132.51
-131.29
-130.91
-131.09
-131.00
-129.49
-124.82
-114.54
-95.59
-67.74
-33.59
2.04
33.77
57.76
72.49
78.36
76.55
69.03
56.64
40.32
21.68
2.65
-14.66
-28.57
-38.18
-44.47
-48.14
-51.36
-57.49
-69.09
-85.53
-101.35
-107.31
-93.49
-57.76
-6.11
48.33
91.10
112.81
112.52
96.74
74.85
54.27
38.26
27.18
20.64
19.18
23.99
35.36
51.53
68.41
80.22
82.17
72.72
54.40
33.49
17.90
13.55
21.47
37.49
53.41
60.86
55.31
37.39
12.34
-12.78
-32.23
-43.10
-45.54
-41.86
-35.29
-28.17
-21.79
-16.12
-10.07
-2.12
8.93
23.05
37.83
48.77
51.24
41.64
19.00
-14.67
-54.71
-94.68
-127.72
-145.60
-145.39
-127.84
-96.56
-56.49
-12.92
29.52
67.32
99.15
123.98
140.43
148.04
146.87
137.30
119.83
95.00
61.89
23.26
-18.61
-60.94
-98.83
-125.85
-135.98
-126.31
-99.02
-61.11
-21.97
9.56
28.67
35.88
35.24
31.45
27.65
24.69
22.34
20.57
19.70
20.45
23.36
27.86
32.63
36.21
37.48
36.58
34.72
33.31
33.57
36.25
40.83
45.70
48.44
46.25
37.00
20.24
-2.82
-29.54
-56.69
-81.62
-103.60
-121.56
-134.93
-142.96
-144.17
-137.26
-122.02
-99.97
-74.47
-49.84
-30.08
-17.99
-14.78
-19.61
-30.37
-44.36
-58.90
-71.47
-79.80
-82.02
-75.81
-62.04
-42.04
-17.99
7.67
32.47
54.37
72.26
85.88
95.91
103.21
109.27
115.26
122.02
129.92
138.74
147.91
156.33
163.48
167.51
167.19
161.65
150.44
133.51
111.42
85.13
55.80
25.06
-5.56
-34.76
-61.67
-85.78
-106.94
-124.92
-139.59
-152.16
-161.68
-167.57
-169.30
-166.42
-158.58
-145.98
-128.96
-108.17
-84.92
-60.26
-35.64
-12.47
7.82
24.08
35.10
40.14
38.83
31.19
18.40
1.96
-15.89
-32.39
-44.82
-51.07
-49.63
-38.49
-19.01
7.14
37.35
69.16
100.42
129.13
153.13
171.24
181.98
184.01
177.40
163.03
142.89
119.82
96.86
75.73
57.19
40.97
25.52
9.25
-8.79
-28.71
-49.86
-69.09
-85.95
-100.51
-112.93
-126.06
-139.20
-150.98
-160.34
-166.69
-169.32
-166.73
-156.20
-135.06
-97.85
-49.61
0.91
43.97
71.92
81.84
76.08
60.74
42.40
25.30
10.43
-2.32
-13.38
-22.48
-28.76
-31.73
-31.82
-30.69
-30.64
-34.14
-41.53
-51.85
-63.45
-74.51
-83.73
-90.63
-95.52
-98.88
-101.34
-103.58
-103.85
-100.62
-92.75
-79.92
-62.79
-42.73
-21.28
-0.22
19.20
36.38
50.83
62.37
70.85
76.12
78.04
76.96
73.28
67.70
61.19
54.31
47.53
40.97
34.40
27.41
19.70
11.10
1.51
-8.77
-19.57
-30.66
-41.77
-52.88
-64.10
-75.41
-86.86
-98.21
-108.93
-118.45
-125.96
-130.48
-130.77
-127.42
-120.40
-110.13
-97.32
-83.06
-68.86
-56.27
-46.57
-40.58
-38.34
-38.87
-40.89
-42.72
-42.92
-40.70
-36.15
-29.97
-23.20
-16.67
-10.40
-3.96
4.11
15.16
29.88
47.83
67.66
87.52
105.73
121.48
134.51
146.25
157.76
169.14
179.16
186.02
188.55
187.15
184.19
183.10
189.50
207.21
236.59
273.83
312.59
346.26
370.29
383.18
385.83
383.58
381.94
384.71
393.07
405.69
419.59
430.67
434.40
408.77
341.71
235.58
108.05
-15.69
-115.53
-183.43
-222.57
-241.33
-248.02
-241.31
-220.70
-188.69
-151.61
-118.63
-98.69
-97.69
-117.51
-156.60
-214.76
-283.23
-350.38
-405.21
-441.70
-460.51
-467.58
-470.89
-476.65
-488.05
-500.53
-509.25
-511.43
-507.21
-498.30
-485.85
-469.28
-446.16
-412.83
-364.62
-301.99
-228.47
-149.69
-71.43
2.05
68.29
126.35
176.24
218.55
252.62
278.85
298.01
311.68
322.12
331.68
342.00
353.42
365.14
374.70
381.32
384.73
385.40
384.14
381.72
378.25
373.15
365.57
354.51
342.25
331.98
327.31
331.14
345.04
369.31
403.82
448.53
485.67
500.11
479.66
419.47
323.97
205.29
79.35
-38.10
-134.50
-203.25
-241.94
-253.68
-244.35
-219.87
-184.53
-141.52
-94.35
-47.07
-2.48
37.15
70.00
95.29
112.87
122.43
122.81
111.50
86.56
45.95
-4.92
-58.77
-110.38
-155.52
-190.79
-214.25
-226.77
-230.10
-226.45
-217.40
-204.96
-191.19
-178.11
-168.73
-159.00
-149.37
-140.71
-133.42
-126.86
-120.37
-113.19
-104.44
-93.88
-81.75
-70.51
-61.85
-56.24
-52.95
-51.13
-50.15
-49.63
-49.85
-51.20
-56.36
-66.55
-80.99
-97.24
-112.96
-127.07
-140.15
-154.08
-170.99
-195.16
-228.28
-268.18
-309.54
-346.46
-374.54
-391.95
-398.99
-397.16
-392.21
-389.40
-391.43
-397.98
-406.32
-412.05
-409.96
-395.35
-344.55
-250.31
-124.83
5.30
114.11
188.35
228.85
244.32
244.11
234.48
215.46
186.23
148.47
107.34
68.80
37.01
13.15
-4.01
-18.93
-34.80
-52.53
-70.34
-84.01
-89.58
-85.37
-72.56
-54.32
-34.47
-16.97
-4.21
3.84
9.58
15.80
24.26
35.40
48.95
61.53
70.98
76.44
78.56
79.86
82.64
87.88
94.98
102.31
108.24
112.27
114.65
116.11
119.16
125.40
134.59
144.71
153.01
157.69
159.32
160.25
163.04
172.80
193.00
223.85
262.21
303.20
342.48
377.83
409.18
436.66
464.73
497.64
537.44
582.63
628.45
667.93
693.75
700.61
665.43
579.72
452.22
307.36
173.94
72.52
9.00
-22.68
-27.64
-18.50
-1.65
20.27
43.39
60.99
66.57
56.38
27.83
-14.97
-67.55
-121.47
-165.87
-194.50
-207.62
-208.22
-200.30
-187.38
-171.62
-158.84
-153.03
-152.01
-155.43
-166.67
-188.05
-220.33
-262.54
-311.79
-369.25
-435.84
-504.16
-568.33
-626.28
-674.76
-709.89
-727.96
-700.43
-610.14
-498.42
-388.64
-277.97
-169.15
-65.25
29.50
109.44
168.42
196.71
184.02
131.70
44.72
-70.34
-201.97
-336.96
-463.20
-571.04
-635.10
-636.94
-566.90
-437.14
-276.61
-113.84
31.93
151.73
243.90
309.12
346.94
361.82
358.92
343.45
322.03
300.46
282.41
269.07
259.34
249.06
236.18
219.90
200.94
181.78
165.07
152.45
144.31
140.19
137.93
136.09
133.81
130.81
127.04
121.99
115.42
104.98
89.26
67.37
39.56
7.18
-27.52
-62.27
-95.10
-124.82
-151.26
-174.63
-195.78
-215.49
-233.32
-246.78
-251.91
-244.27
-221.84
-186.80
-145.02
-104.41
-72.22
-52.55
-45.39
-48.04
-56.28
-67.16
-79.49
-92.79
-106.31
-118.49
-127.01
-129.19
-127.90
-124.36
-119.92
-115.78
-112.15
-108.48
-103.79
-97.23
-88.52
-78.30
-66.87
-54.83
-42.68
-30.34
-17.37
-3.45
11.40
26.73
41.64
55.83
69.11
81.59
93.62
105.52
117.16
128.08
137.35
144.21
148.52
150.50
151.11
151.92
154.85
161.79
173.73
189.73
206.72
220.05
225.09
219.00
202.32
178.82
154.17
133.84
121.24
116.94
119.19
124.83
130.29
132.62
130.24
123.02
112.10
99.21
86.19
74.38
64.46
56.39
49.42
42.19
32.94
20.09
3.34
-15.79
-34.41
-49.28
-58.98
-64.44
-68.64
-74.91
-85.13
-98.95
-114.59
-129.65
-142.02
-150.19
-152.86
-149.26
-139.53
-124.96
-107.58
-89.52
-71.33
-51.81
-28.91
-1.48
29.84
62.60
93.92
122.03
146.40
167.28
184.23
195.83
200.14
196.08
183.95
165.28
141.91
114.90
85.02
53.76
24.35
1.21
-11.27
-11.10
0.12
17.61
35.55
49.26
56.38
56.71
51.45
42.41
31.25
19.39
8.36
-0.42
-5.27
-5.33
-1.29
4.68
9.61
10.10
3.54
-10.57
-30.25
-51.37
-69.29
-80.49
-83.33
-76.13
-58.75
-32.92
-2.17
28.64
54.64
72.19
79.53
76.94
70.10
64.61
63.50
66.53
72.15
80.15
91.70
107.36
125.28
147.03
172.19
198.33
221.43
238.09
247.16
248.76
242.95
230.59
222.81
232.04
267.83
332.39
420.66
524.05
632.70
737.31
781.86
730.12
581.06
372.82
154.02
-43.76
-209.92
-346.52
-459.74
-554.87
-627.18
-673.61
-695.93
-699.72
-692.63
-679.75
-662.69
-640.55
-611.47
-561.54
-487.76
-395.31
-295.85
-202.81
-125.77
-69.07
-32.51
-13.13
-3.11
3.51
10.98
19.88
28.23
34.03
36.37
35.40
32.14
29.69
29.91
34.59
43.77
55.94
69.28
82.30
93.99
104.02
115.49
127.49
139.99
152.41
162.98
169.75
171.27
167.06
158.02
146.23
133.79
123.62
118.53
119.96
128.14
141.23
155.05
163.73
161.56
145.16
116.14
80.67
46.52
20.65
6.41
2.73
5.59
10.29
12.96
11.26
8.22
4.44
-0.24
-6.28
-13.74
-21.84
-29.27
-34.90
-37.72
-37.07
-33.11
-25.76
-15.17
-2.31
10.89
21.79
28.03
28.67
24.60
17.51
9.58
2.36
-3.78
-9.21
-14.29
-18.66
-21.32
-21.17
-18.15
-13.15
-7.93
-4.57
-4.42
-7.67
-13.82
-21.31
-28.02
-32.14
-32.70
-29.99
-25.06
-19.04
-12.68
-6.88
-2.42
0.06
-0.03
-2.83
-7.58
-12.27
-13.94
-9.96
-0.83
11.28
23.73
34.54
42.76
48.55
52.74
56.26
59.42
57.53
46.93
27.50
2.80
-22.72
-45.74
-64.52
-78.82
-89.82
-108.14
-141.41
-189.54
-245.20
-300.01
-348.72
-389.52
-422.72
-449.43
-484.05
-535.16
-599.53
-664.23
-717.30
-753.79
-774.91
-784.82
-787.88
-804.96
-848.65
-916.45
-993.04
-1063.76
-1122.02
-1167.87
-1204.04
-1124.97
-883.53
-518.22
-127.99
207.94
463.29
646.70
777.66
874.00
948.64
991.77
1000.37
980.02
945.47
909.89
878.40
850.03
821.51
790.65
734.90
649.19
544.12
439.76
352.67
289.77
250.35
229.67
223.39
218.31
206.60
186.78
163.76
143.18
127.98
119.16
111.64
108.07
105.92
104.74
105.48
110.90
122.84
141.17
164.42
189.54
214.75
236.21
251.79
260.14
260.90
253.56
236.65
215.04
190.45
164.66
138.02
110.46
80.96
48.10
10.90
-30.56
-74.80
-120.30
-164.68
-206.35
-244.48
-279.41
-312.23
-343.98
-374.95
-404.20
-430.74
-452.95
-469.98
-481.95
-489.88
-495.59
-501.40
-509.95
-523.61
-543.96
-569.70
-596.20
-615.92
-620.63
-604.55
-566.90
-512.20
-448.42
-383.96
-324.61
-272.60
-227.17
-186.89
-150.88
-119.19
-92.10
-68.98
-48.07
-27.07
-4.28
20.93
47.66
74.08
98.37
119.22
136.24
149.66
159.82
166.59
169.13
166.07
156.05
138.43
113.65
83.42
50.14
16.54
-15.06
-43.08
-66.69
-85.58
-99.61
-108.74
-112.67
-111.26
-104.62
-93.26
-78.03
-60.23
-41.08
-21.44
-1.78
17.93
37.88
58.03
78.14
97.71
115.89
131.99
145.67
157.13
166.87
175.35
182.75
188.77
192.73
193.95
192.11
187.74
182.18
177.17
174.13
173.72
175.46
178.23
180.82
182.48
183.34
184.13
185.96
189.77
196.28
206.02
219.35
235.80
253.33
267.98
274.44
267.84
245.64
209.37
164.76
120.17
83.38
58.32
43.93
35.28
27.24
17.31
6.40
-3.08
-9.89
-15.43
-22.56
-32.54
-43.34
-50.09
-48.14
-37.07
-21.82
-10.26
-8.93
-19.61
-38.33
-58.26
-73.02
-79.41
-78.56
-74.58
-72.92
-78.24
-92.79
-115.07
-140.18
-161.06
-171.17
-167.26
-150.28
-124.75
-96.35
-69.70
-47.08
-28.94
-14.91
-4.57
2.25
6.02
7.87
9.38
12.55
18.91
28.99
42.48
58.60
76.46
95.49
115.02
134.27
152.63
169.78
185.88
201.20
215.59
228.28
238.25
244.90
248.54
249.88
248.59
242.88
229.84
207.43
176.36
140.50
105.64
76.54
54.54
37.58
22.48
7.88
-4.58
-11.62
-10.95
-3.15
8.55
20.20
28.96
33.67
33.67
27.88
14.84
-5.28
-28.75
-48.26
-55.50
-45.40
-19.68
13.20
42.10
58.92
62.43
58.17
54.38
56.96
66.15
76.90
82.53
79.20
68.34
55.84
48.13
48.00
52.94
56.57
52.82
39.70
20.51
1.87
-10.13
-13.05
-9.15
-3.46
-1.19
-5.17
-15.02
-28.07
-40.64
-49.77
-54.01
-53.78
-51.04
-48.26
-47.21
-47.94
-48.42
-45.83
-38.42
-26.66
-12.90
0.10
11.11
21.18
32.52
46.50
62.31
76.86
86.06
86.81
78.38
62.55
42.81
23.08
6.51
-5.04
-11.18
-12.57
-10.37
-5.74
0.66
8.41
16.90
24.83
29.97
29.88
23.20
10.61
-4.81
-18.47
-25.81
-23.93
-12.57
5.85
26.87
45.43
57.19
59.50
52.27
38.02
20.99
5.46
-5.44
-10.64
-10.96
-8.38
-5.22
-3.55
-4.70
-9.10
-16.19
-24.52
-32.39
-38.64
-43.21
-46.87
-50.55
-54.48
-57.84
-59.50
-59.00
-57.16
-55.72
-56.10
-58.30
-60.82
-61.25
-57.51
-48.72
-35.61
-20.27
-5.66
5.41
11.03
10.82
6.19
-0.23
-5.78
-8.91
-9.75
-9.54
-9.58
-9.73
-8.22
-2.38
9.37
25.82
43.16
56.24
61.35
57.98
48.69
37.36
26.92
18.10
10.01
1.95
-5.68
-11.05
-11.99
-7.39
2.11
14.10
24.96
31.25
30.84
23.39
10.82
-3.49
-15.78
-23.51
-26.42
-26.41
-26.46
-28.43
-32.11
-35.26
-35.40
-31.79
-25.98
-20.90
-18.91
-20.35
-23.48
-25.66
-25.24
-22.48
-19.10
-16.80
-16.04
-15.91
-15.20
-13.88
-13.51
-16.20
-23.08
-32.59
-40.64
-42.41
-34.48
-16.82
7.05
31.69
51.84
64.58
70.15
71.06
70.13
68.83
66.85
62.91
56.40
48.47
41.54
37.82
37.33
37.76
35.83
29.42
19.31
8.88
2.27
1.78
6.49
12.50
15.09
11.10
0.55
-13.42
-26.15
-33.62
-33.90
-27.58
-17.19
-5.87
3.46
8.73
9.01
4.61
-3.31
-13.11
-23.34
-33.05
-41.93
-50.39
-59.13
-68.70
-78.97
-88.84
-96.30
-99.08
-95.66
-86.06
-71.95
-56.19
-41.67
-30.03
-21.17
-13.71
-6.07
2.51
11.50
19.46
24.96
27.10
25.95
22.46
17.99
13.92
11.10
9.72
9.31
9.09
8.30
6.37
3.15
-1.31
-6.81
-13.01
-19.55
-26.01
-31.91
-36.75
-40.33
-43.11
-45.97
-49.86
-55.27
-61.71
-68.05
-72.87
-75.37
-75.67
-74.61
-73.21
-71.87
-70.70
-69.63
-68.91
-68.89
-69.48
-69.64
-67.38
-60.92
-49.75
-35.24
-19.94
-6.12
5.65
16.57
28.40
42.15
57.01
70.87
81.40
87.49
89.30
87.89
84.28
78.63
70.54
59.49
45.51
29.71
13.89
0.05
-10.27
-16.22
-17.93
-16.17
-12.28
-7.90
-4.42
-2.73
-3.06
-5.11
-8.20
-11.64
-14.66
-16.76
-17.63
-16.93
-14.51
-10.62
-6.16
-2.85
-2.68
-6.61
-13.71
-21.01
-24.73
-22.44
-14.47
-4.01
4.53
8.02
6.50
2.89
1.06
3.36
9.04
14.74
16.60
12.31
2.42
-10.08
-21.38
-28.80
-31.83
-32.27
-33.06
-36.61
-43.73
-53.42
-63.32
-71.13
-75.40
-76.14
-74.79
-73.64
-75.00
-80.37
-90.08
-103.30
-118.41
-133.64
-147.75
-160.36
-171.81
-182.74
-193.30
-202.67
-209.60
-212.99
-212.35
-207.67
-198.73
-184.31
-162.51
-131.75
-92.33
-47.59
-3.18
34.76
62.24
78.86
88.04
95.23
105.41
121.05
141.50
163.92
184.98
202.52
215.70
224.63
229.68
231.38
230.40
227.82
224.55
220.40
213.62
201.63
182.31
155.68
124.56
93.63
67.99
51.62
46.45
52.51
68.32
91.13
117.05
141.12
158.19
164.28
157.87
140.28
115.12
86.75
58.82
33.65
12.15
-5.49
-19.16
-28.67
-33.84
-34.76
-31.88
-26.07
-18.26
-9.35
0.03
9.34
18.10
25.64
31.34
34.96
36.71
37.32
37.69
38.58
40.46
43.40
47.25
51.65
56.14
60.09
63.09
65.17
66.91
69.17
72.47
76.42
79.78
81.10
79.49
75.19
69.38
63.52
58.66
55.20
53.16
52.55
53.39
55.38
57.72
59.07
58.02
53.74
46.42
37.13
27.21
17.21
6.07
-8.80
-30.87
-63.06
-106.33
-158.93
-216.60
-273.67
-324.79
-366.32
-396.83
-416.97
-428.49
-433.49
-433.77
-430.16
-422.07
-407.10
-381.79
-343.09
-290.18
-225.53
-154.47
-83.53
-18.07
39.14
88.16
130.51
167.50
198.89
222.81
236.57
238.16
227.62
207.69
183.40
160.73
145.05
139.43
144.14
156.91
174.03
191.51
205.59
213.00
210.98
197.64
172.82
138.51
98.85
58.99
23.68
-3.98
-23.09
-34.48
-39.98
-41.71
-41.63
-41.09
-40.85
-40.90
-40.59
-38.83
-34.59
-27.53
-18.37
-8.63
-0.00
6.28
9.93
11.40
11.41
10.42
8.34
4.77
-0.54
-7.09
-13.66
-18.71
-21.30
-21.65
-21.11
-21.30
-23.01
-25.72
-27.74
-27.50
-24.65
-20.41
-16.95
-16.11
-18.28
-22.22
-26.01
-28.19
-28.31
-27.03
-25.24
-23.43
-21.47
-18.93
-15.44
-11.11
-6.49
-2.25
1.13
3.48
4.89
5.52
5.18
3.51
0.05
-5.28
-11.83
-18.12
-22.26
-22.72
-19.01
-12.04
-3.82
3.53
8.70
11.61
13.12
14.25
15.39
16.11
15.64
13.53
10.11
6.31
3.17
1.16
0.11
-0.50
-1.04
-1.43
-1.15
0.35
3.21
7.06
11.21
15.10
18.40
20.95
22.61
23.00
21.81
18.86
14.30
8.60
2.28
-4.30
-10.93
-17.56
-24.15
-30.61
-36.66
-41.83
-45.58
-47.36
-46.97
-44.61
-40.86
-36.43
-31.94
-27.90
-24.87
-23.68
-25.13
-29.39
-35.26
-39.95
-39.93
-32.33
-16.56
5.01
27.83
46.98
59.02
63.12
60.65
54.17
45.99
37.57
29.55
22.28
16.30
12.31
10.98
12.49
16.37
21.46
26.29
29.51
30.26
28.46
24.75
20.37
16.48
13.75
12.02
10.30
7.45
2.92
-2.75
-7.98
-10.86
-10.24
-6.44
-1.19
3.14
4.71
2.95
-1.37
-6.82
-12.09
-16.62
-20.44
-23.65
-26.22
-27.74
-28.04
-27.33
-26.39
-26.06
-26.67
-27.69
-27.89
-26.09
-21.75
-15.42
-8.34
-1.85
3.39
7.55
11.35
15.36
19.42
22.72
24.24
23.50
20.82
17.28
14.12
12.16
11.50
11.61
11.88
11.86
11.65
11.57
11.92
12.75
13.58
13.74
12.68
10.20
6.61
2.64
-0.88
-3.33
-4.49
-4.72
-4.54
-4.33
-4.22
-4.19
-4.08
-3.80
-3.19
-2.04
-0.41
1.40
2.88
3.53
3.36
3.13
4.14
7.81
15.14
25.83
38.61
51.87
64.41
75.67
85.68
94.49
102.04
108.49
113.90
118.71
123.88
130.39
138.74
148.57
158.91
168.69
177.43
184.47
189.25
191.75
192.70
193.25
194.19
195.19
194.09
187.34
169.99
137.72
89.45
28.37
-38.63
-103.09
-157.54
-200.26
-228.06
-239.44
-236.79
-226.48
-213.74
-200.18
-185.41
-168.30
-148.12
-124.92
-100.91
-80.16
-67.29
-65.58
-75.09
-92.14
-110.55
-122.89
-121.98
-104.10
-71.37
-32.07
0.22
11.74
-6.67
-57.25
-134.28
-225.26
-309.22
-362.31
-367.66
-326.50
-254.11
-168.09
-80.12
5.54
89.67
170.83
244.83
307.66
353.78
380.50
390.05
386.99
375.56
359.47
336.32
300.99
247.76
168.14
58.22
-76.29
-224.75
-374.09
-509.48
-622.50
-707.65
-737.34
-694.82
-580.80
-415.22
-230.32
-70.11
61.58
167.39
250.69
313.55
351.62
359.51
335.85
280.58
196.99
93.71
-22.29
-142.85
-259.60
-368.50
-466.39
-528.86
-535.87
-481.90
-378.84
-251.78
-122.60
-3.44
99.74
185.67
255.26
307.08
341.05
360.28
367.11
365.23
359.26
351.70
342.77
329.97
306.60
265.10
201.72
113.38
1.88
-126.91
-265.34
-404.52
-534.31
-644.85
-726.38
-767.31
-759.87
-702.39
-597.49
-451.99
-276.37
-83.93
109.55
288.15
441.85
564.09
635.18
637.84
572.12
459.22
328.18
210.02
104.44
8.61
-77.70
-152.64
-207.72
-233.89
-226.81
-183.51
-111.76
-28.22
51.55
116.18
160.87
188.71
205.91
217.71
226.52
231.39
229.85
221.80
206.40
181.58
146.75
103.87
57.74
15.02
-18.76
-40.34
-48.10
-43.68
-30.97
-13.44
6.68
28.08
50.33
70.06
83.29
87.50
81.62
66.06
42.77
14.66
-16.34
-47.04
-76.86
-106.01
-133.46
-156.14
-169.24
-167.86
-149.58
-116.36
-74.49
-33.26
-0.86
18.29
24.24
20.53
12.04
3.01
-4.04
-8.04
-9.16
-7.63
-3.55
1.82
5.34
2.03
-13.19
-42.50
-82.12
-122.43
-151.62
-159.22
-141.95
-105.20
-60.50
-19.92
9.13
26.10
35.50
42.86
51.35
60.22
66.87
69.31
67.57
63.65
59.93
57.44
55.37
51.94
45.18
34.31
20.25
4.97
-9.46
-21.64
-30.90
-37.02
-39.66
-38.13
-31.94
-21.25
-7.43
7.19
20.09
29.35
34.16
34.77
31.91
26.14
17.62
6.77
-5.14
-16.36
-25.01
-29.66
-30.33
-28.24
-25.02
-21.97
-19.71
-18.20
-17.15
-16.49
-16.39
-16.85
-17.30
-17.03
-15.72
-14.24
-14.77
-19.88
-30.97
-47.16
-65.16
-80.44
-89.25
-90.24
-84.97
-76.73
-68.84
-63.36
-60.73
-60.27
-60.71
-60.41
-57.73
-50.79
-38.33
-20.26
1.78
24.66
44.70
58.80
65.28
64.27
57.65
48.54
40.80
38.38
44.39
60.04
83.95
112.05
138.48
157.47
164.90
159.80
144.51
123.47
101.24
81.06
64.36
50.84
39.90
31.23
25.07
21.55
19.83
17.99
13.91
6.61
-2.94
-12.21
-18.62
-20.99
-20.41
-19.65
-21.90
-29.20
-41.67
-57.70
-74.59
-89.63
-101.13
-108.43
-111.76
-111.97
-110.44
-108.91
-109.17
-112.61
-119.77
-130.19
-142.32
-154.18
-164.27
-172.14
-178.40
-183.87
-189.09
-193.98
-198.45
-201.86
-203.32
-201.57
-194.98
-181.41
-158.16
-123.50
-77.83
-24.69
31.87
88.17
141.46
189.50
230.52
264.71
292.50
314.06
327.09
330.98
326.36
314.90
298.10
277.69
257.83
241.71
229.53
214.90
193.18
163.06
128.36
95.54
71.81
65.18
78.77
109.84
147.60
185.64
222.76
262.01
304.57
327.43
310.04
242.48
157.79
71.73
-4.65
-70.75
-121.55
-155.41
-175.18
-183.44
-183.66
-179.70
-180.03
-188.62
-205.58
-226.74
-247.50
-264.03
-272.76
-274.24
-273.57
-281.46
-303.92
-340.69
-385.70
-431.95
-473.88
-506.71
-526.69
-529.95
-514.23
-476.30
-415.30
-334.88
-243.99
-153.68
-72.52
-4.70
49.74
92.33
126.15
154.41
179.95
204.70
229.89
256.03
282.52
307.71
329.16
345.37
356.44
364.31
372.05
383.23
400.65
425.23
454.73
483.43
503.06
505.04
483.46
437.54
372.30
296.79
220.88
151.92
92.51
40.74
-8.10
-58.62
-112.94
-169.08
-221.22
-261.27
-281.51
-277.66
-250.84
-207.61
-157.48
-109.51
-69.24
-37.81
-13.31
6.76
23.50
36.36
44.25
47.01
45.78
41.97
35.80
25.51
7.99
-19.33
-56.27
-98.83
-139.59
-169.60
-181.06
-169.56
-135.31
-82.82
-19.24
48.19
113.96
174.49
226.93
267.47
290.48
289.92
262.53
211.49
147.85
88.34
49.89
43.23
68.74
116.47
170.67
216.44
245.33
257.29
258.29
255.42
252.44
248.02
237.46
216.21
183.23
141.50
96.26
52.07
10.80
-28.33
-66.78
-104.51
-138.88
-165.59
-181.18
-185.43
-182.43
-179.06
-181.82
-193.48
-211.22
-227.22
-231.80
-217.83
-184.41
-138.33
-92.18
-59.84
-51.43
-69.77
-109.70
-160.74
-211.37
-252.97
-281.77
-298.73
-307.54
-312.56
-317.72
-326.45
-342.16
-368.14
-405.98
-453.56
-503.91
-546.50
-570.52
-569.07
-542.64
-498.33
-446.79
-398.14
-358.49
-328.73
-305.85
-285.26
-263.13
-237.74
-208.59
-175.38
-137.75
-95.35
-48.41
1.87
53.61
104.00
148.90
184.91
210.32
224.69
228.85
224.28
212.80
197.52
181.07
162.71
142.27
121.38
101.78
85.31
73.64
67.92
71.47
86.14
106.54
127.96
148.74
167.10
181.59
191.70
198.38
209.20
232.10
264.42
303.53
348.11
392.98
431.45
458.45
472.80
483.79
502.51
527.13
558.08
599.86
653.48
716.56
783.78
808.51
755.64
675.49
594.64
504.06
406.33
306.12
208.57
118.87
41.73
-12.50
-35.38
-47.52
-61.39
-79.23
-101.01
-127.16
-159.75
-201.51
-248.32
-293.00
-335.57
-371.88
-395.50
-405.02
-403.37
-395.23
-384.32
-369.17
-347.17
-322.19
-296.65
-271.36
-248.30
-229.24
-214.70
-203.59
-192.31
-177.71
-160.89
-142.82
-124.23
-106.55
-90.83
-77.10
-64.09
-49.46
-31.47
-11.01
10.06
29.46
44.19
52.22
52.99
47.61
38.10
26.63
14.93
4.48
-3.50
-8.37
-10.21
-10.43
-10.93
-13.17
-16.86
-19.80
-19.15
-13.37
-3.92
5.01
8.16
2.82
-9.38
-22.73
-30.08
-26.20
-10.04
14.96
42.76
66.51
81.52
86.74
84.62
80.17
79.41
87.40
106.54
138.44
179.52
222.37
257.92
278.16
278.75
260.36
228.23
190.29
154.69
126.97
109.58
102.00
101.55
104.66
107.80
107.88
102.51
90.29
70.56
44.13
13.17
-19.52
-51.24
-80.15
-105.92
-129.49
-152.52
-176.94
-203.54
-231.22
-256.93
-276.49
-286.29
-285.02
-274.46
-258.80
-242.76
-228.80
-215.96
-200.55
-178.50
-148.11
-111.21
-72.08
-35.07
-2.63
25.21
49.36
69.82
85.08
93.32
94.36
90.98
87.93
89.23
95.43
102.76
105.04
97.40
79.30
55.35
33.25
20.21
19.68
30.20
46.31
61.12
69.22
68.18
58.78
43.98
27.30
11.66
-0.98
-9.51
-13.39
-12.76
-8.99
-5.10
-5.09
-12.68
-29.40
-53.49
-80.21
-103.89
-120.53
-129.59
-134.10
-138.85
-147.91
-162.84
-182.40
-203.61
-223.33
-239.26
-250.05
-254.75
-252.41
-242.44
-225.38
-203.43
-180.12
-158.99
-141.93
-128.36
-115.61
-100.62
-81.64
-59.16
-35.54
-13.60
4.81
19.41
31.20
41.40
50.72
59.06
65.77
70.23
72.15
71.59
68.78
64.00
57.56
49.85
41.52
33.35
26.03
19.81
14.48
9.55
4.73
0.22
-3.39
-5.57
-6.45
-6.84
-7.82
-9.88
-12.39
-13.83
-12.93
-9.77
-6.24
-5.24
-8.88
-17.04
-27.08
-35.21
-38.69
-37.50
-34.26
-32.48
-34.32
-39.07
-43.58
-44.21
-38.96
-28.57
-15.84
-4.01
5.09
11.65
